113951.31847807701, -31518.126953125, 0.0, -31296.845703125, 0.0, 0.0, -39594.015625, -39647.03125, 0.0
113951.32247807701, -31240.25, 0.0, -31200.64453125, 0.0, 0.0, -39576.53515625, -39629.46484375, 0.0
113951.32647807701, -31106.341796875, 0.0, -31122.994140625, 0.0, 0.0, -39557.984375, -39610.9140625, 0.0
113951.33047807701, -31121.474609375, 0.0, -31137.947265625, 0.0, 0.0, -39541.44140625, -39594.41796875, 0.0
113951.33447807701, -31103.705078125, 0.0, -31120.04296875, 0.0, 0.0, -39524.65625, -39577.5859375, 0.0
113951.33847807701, -31060.162109375, 0.0, -31076.703125, 0.0, 0.0, -39509.7265625, -39562.83203125, 0.0
113951.34247807701, -31093.556640625, 0.0, -31110.298828125, 0.0, 0.0, -39493.51953125, -39546.60546875, 0.0
113951.34647807702, -31144.80859375, 0.0, -31161.259765625, 0.0, 0.0, -39477.80859375, -39530.71484375, 0.0
113951.35047807702, -31139.98046875, 0.0, -31156.41015625, 0.0, 0.0, -39463.97265625, -39516.90234375, 0.0
113951.35447807702, -31105.40234375, 0.0, -31121.630859375, 0.0, 0.0, -39451.3203125, -39504.18359375, 0.0
113951.40017721201, -31058.576171875, 0.0, -31074.71484375, 0.0, 0.0, -39435.875, -39488.73828125, 0.0
113951.40417721201, -31036.91796875, 0.0, -31053.3671875, 0.0, 0.0, -39416.453125, -39469.40234375, 0.0
113951.40817721201, -31054.306640625, 0.0, -31071.181640625, 0.0, 0.0, -39401.67578125, -39454.60546875, 0.0
113951.41217721201, -31023.73046875, 0.0, -31040.671875, 0.0, 0.0, -39390.30078125, -39443.1640625, 0.0
113951.41617721201, -30958.998046875, 0.0, -30975.830078125, 0.0, 0.0, -39375.390625, -39428.23046875, 0.0
113951.42017721201, -30934.3671875, 0.0, -30950.83984375, 0.0, 0.0, -39359.58984375, -39412.49609375, 0.0
113951.42417721201, -30971.29296875, 0.0, -30987.765625, 0.0, 0.0, -39345.4609375, -39398.32421875, 0.0
113951.42817721202, -30952.517578125, 0.0, -30968.7890625, 0.0, 0.0, -39332.2734375, -39385.25, 0.0
113951.43217721202, -30871.89453125, 0.0, -30887.98828125, 0.0, 0.0, -39316.3828125, -39369.40234375, 0.0
113951.43617721202, -30850.705078125, 0.0, -30866.798828125, 0.0, 0.0, -39299.55078125, -39352.45703125, 0.0
113951.50404268301, -30839.796875, 0.0, -30856.091796875, 0.0, 0.0, -39286.54296875, -39339.3828125, 0.0
113951.50804268301, -30839.103515625, 0.0, -30855.599609375, 0.0, 0.0, -39273.04296875, -39325.99609375, 0.0
113951.51204268301, -30866.462890625, 0.0, -30883.205078125, 0.0, 0.0, -39258.8515625, -39311.77734375, 0.0
113951.51604268301, -30902.091796875, 0.0, -30918.69921875, 0.0, 0.0, -39243.5390625, -39296.46875, 0.0
113951.52004268301, -30919.369140625, 0.0, -30935.796875, 0.0, 0.0, -39229.43359375, -39282.453125, 0.0
113951.52404268301, -30926.25390625, 0.0, -30942.615234375, 0.0, 0.0, -39216.58203125, -39269.6015625, 0.0
113951.52804268301, -30931.931640625, 0.0, -30947.912109375, 0.0, 0.0, -39202.76953125, -39255.83203125, 0.0
113951.53204268301, -30916.462890625, 0.0, -30932.6015625, 0.0, 0.0, -39189.3359375, -39242.265625, 0.0
113951.53604268302, -30891.720703125, 0.0, -30907.857421875, 0.0, 0.0, -39171.69921875, -39224.49609375, 0.0
113951.54004268302, -30869.591796875, 0.0, -30885.908203125, 0.0, 0.0, -39157.953125, -39210.92578125, 0.0
113951.586380016, -30828.62109375, 0.0, -30845.25, 0.0, 0.0, -39145.70703125, -39198.65625, 0.0
113951.590380016, -30797.44140625, 0.0, -30813.7578125, 0.0, 0.0, -39128.78515625, -39181.78125, 0.0
113951.594380016, -30787.091796875, 0.0, -30803.318359375, 0.0, 0.0, -39113.2265625, -39166.15625, 0.0
113951.598380016, -30769.298828125, 0.0, -30785.7734375, 0.0, 0.0, -39099.125, -39151.94140625, 0.0
113951.602380016, -30742.0078125, 0.0, -30758.705078125, 0.0, 0.0, -39084.640625, -39137.50390625, 0.0
113951.606380016, -30712.99609375, 0.0, -30729.111328125, 0.0, 0.0, -39071.4296875, -39124.29296875, 0.0
113951.610380016, -30686.666015625, 0.0, -30703.115234375, 0.0, 0.0, -39055.76171875, -39108.578125, 0.0
113951.614380016, -30688.69921875, 0.0, -30704.970703125, 0.0, 0.0, -39042.171875, -39095.1015625, 0.0
113951.618380016, -30575.30859375, 0.0, -30591.4921875, 0.0, 0.0, -39024.91796875, -39077.7578125, 0.0
113951.62238001601, -30460.935546875, 0.0, -30477.36328125, 0.0, 0.0, -39006.1171875, -39058.9375, 0.0
113951.678373003, -30439.455078125, 0.0, -30455.681640625, 0.0, 0.0, -38991.96875, -39044.65234375, 0.0
113951.682373003, -30416.455078125, 0.0, -30431.876953125, 0.0, 0.0, -38979.5859375, -39032.2265625, 0.0
113951.686373003, -30638.541015625, 0.0, -30573.38671875, 0.0, 0.0, -38971.765625, -39024.58203125, 0.0
113951.690373003, -31330.037109375, 0.0, -31060.005859375, 0.0, 0.0, -38984.1015625, -39036.96484375, 0.0
113951.694373003, -32235.216796875, 0.0, -31824.123046875, 0.0, 0.0, -39013.18359375, -39065.93359375, 0.0
113951.698373003, -32041.986328125, 0.0, -31706.84375, 0.0, 0.0, -39021.38671875, -39074.24609375, 0.0
113951.702373003, -31715.76171875, 0.0, -31430.330078125, 0.0, 0.0, -39025.1171875, -39078.11328125, 0.0
113951.706373003, -32001.41796875, 0.0, -31616.67578125, 0.0, 0.0, -39044.65234375, -39097.4921875, 0.0
113951.710373003, -32795.08203125, 0.0, -32370.400390625, 0.0, 0.0, -39074.87109375, -39127.7109375, 0.0
113951.71437300301, -32988.359375, 0.0, -32553.99609375, 0.0, 0.0, -39091.0546875, -39143.91796875, 0.0
113951.77245141301, -32461.751953125, 0.0, -32027.6796875, 0.0, 0.0, -39093.42578125, -39146.21875, 0.0
113951.77645141301, -32472.390625, 0.0, -32037.58203125, 0.0, 0.0, -39107.6640625, -39160.390625, 0.0
113951.78045141301, -32276.90234375, 0.0, -31884.78515625, 0.0, 0.0, -39115.41796875, -39168.234375, 0.0
113951.78445141301, -31922.58203125, 0.0, -31638.380859375, 0.0, 0.0, -39114.79296875, -39167.65625, 0.0
113951.78845141301, -32200.90625, 0.0, -31788.001953125, 0.0, 0.0, -39132.921875, -39185.71484375, 0.0
113951.79245141301, -32004.3671875, 0.0, -31657.646484375, 0.0, 0.0, -39140.49609375, -39193.3359375, 0.0
113951.79645141301, -31575.4609375, 0.0, -31426.75390625, 0.0, 0.0, -39137.50390625, -39190.5, 0.0
113951.80045141302, -31375.970703125, 0.0, -31223.197265625, 0.0, 0.0, -39134.5078125, -39187.7265625, 0.0
113951.80445141302, -31169.708984375, 0.0, -30965.548828125, 0.0, 0.0, -39128.44921875, -39181.51171875, 0.0
113951.80845141302, -31112.80078125, 0.0, -30903.677734375, 0.0, 0.0, -39126.66015625, -39179.61328125, 0.0
113951.87225145301, -31097.333984375, 0.0, -30871.759765625, 0.0, 0.0, -39122.48046875, -39175.45703125, 0.0
113951.87625145301, -31062.15234375, 0.0, -30778.46484375, 0.0, 0.0, -39114.546875, -39167.56640625, 0.0
113951.88025145301, -31005.267578125, 0.0, -30708.81640625, 0.0, 0.0, -39107.19140625, -39160.078125, 0.0
113951.88425145301, -30978.4453125, 0.0, -30681.724609375, 0.0, 0.0, -39100.93359375, -39153.70703125, 0.0
113951.88825145301, -30934.61328125, 0.0, -30655.193359375, 0.0, 0.0, -39091.90625, -39144.609375, 0.0
113951.89225145301, -30878.48828125, 0.0, -30672.673828125, 0.0, 0.0, -39081.5546875, -39134.3046875, 0.0
113951.89625145301, -30873.97265625, 0.0, -30596.54296875, 0.0, 0.0, -39072.34765625, -39125.1875, 0.0
113951.90025145301, -30860.337890625, 0.0, -30598.95703125, 0.0, 0.0, -39063.83203125, -39116.6015625, 0.0
113951.90425145302, -30787.740234375, 0.0, -30731.30078125, 0.0, 0.0, -39051.87109375, -39104.62109375, 0.0
113951.90825145302, -30752.55859375, 0.0, -30768.763671875, 0.0, 0.0, -39035.84765625, -39088.73046875, 0.0
113951.96572423301, -30727.837890625, 0.0, -30744.130859375, 0.0, 0.0, -39020.1328125, -39072.99609375, 0.0
113951.96972423301, -30624.6171875, 0.0, -30641.42578125, 0.0, 0.0, -39003.28125, -39056.140625, 0.0
113951.97372423302, -30331.517578125, 0.0, -30348.21484375, 0.0, 0.0, -38983.4765625, -39036.3828125, 0.0
113951.97772423302, -30146.06640625, 0.0, -30162.5390625, 0.0, 0.0, -38965.39453125, -39018.30078125, 0.0
113951.98172423302, -30259.947265625, 0.0, -30276.5546875, 0.0, 0.0, -38952.69921875, -39005.58203125, 0.0
113951.98572423302, -30403.603515625, 0.0, -30419.78515625, 0.0, 0.0, -38940.6953125, -38993.625, 0.0
113951.98972423302, -30251.5, 0.0, -30267.748046875, 0.0, 0.0, -38921.71875, -38974.66796875, 0.0
113951.99372423302, -30135.626953125, 0.0, -30152.302734375, 0.0, 0.0, -38905.84765625, -38958.77734375, 0.0
113951.99772423302, -30056.97265625, 0.0, -30073.4453125, 0.0, 0.0, -38888.703125, -38941.5234375, 0.0
113952.00172423302, -29954.890625, 0.0, -29971.095703125, 0.0, 0.0, -38871.96484375, -38924.71484375, 0.0
113952.065220712, -29896.8671875, 0.0, -29912.982421875, 0.0, 0.0, -38857.078125, -38909.828125, 0.0
113952.069220712, -29804.330078125, 0.0, -29820.669921875, 0.0, 0.0, -38840.78125, -38893.578125, 0.0
113952.073220712, -29666.28515625, 0.0, -29682.69140625, 0.0, 0.0, -38822.09765625, -38874.84765625, 0.0
113952.077220712, -29506.828125, 0.0, -29523.099609375, 0.0, 0.0, -38803.9453125, -38856.71875, 0.0
113952.081220712, -29279.98046875, 0.0, -29296.05078125, 0.0, 0.0, -38786.421875, -38839.21875, 0.0
113952.085220712, -29195.37890625, 0.0, -29211.31640625, 0.0, 0.0, -38769.19140625, -38822.03125, 0.0
113952.089220712, -29216.5234375, 0.0, -29232.52734375, 0.0, 0.0, -38750.52734375, -38803.41015625, 0.0
113952.093220712, -29737.341796875, 0.0, -29701.310546875, 0.0, 0.0, -38749.07421875, -38801.9140625, 0.0
113952.097220712, -30877.34765625, 0.0, -30725.021484375, 0.0, 0.0, -38772.98828125, -38825.96484375, 0.0
113952.10122071201, -30953.76953125, 0.0, -30773.345703125, 0.0, 0.0, -38776.765625, -38829.67578125, 0.0
113952.16327089001, -31060.095703125, 0.0, -30893.015625, 0.0, 0.0, -38777.59375, -38830.546875, 0.0
113952.16727089002, -31078.8046875, 0.0, -30940.537109375, 0.0, 0.0, -38781.10546875, -38834.30078125, 0.0
113952.17127089002, -30726.5859375, 0.0, -30595.873046875, 0.0, 0.0, -38774.33203125, -38827.73046875, 0.0
113952.17527089002, -30542.853515625, 0.0, -30433.15234375, 0.0, 0.0, -38765.01171875, -38817.91796875, 0.0
113952.17927089002, -30666.97265625, 0.0, -30508.365234375, 0.0, 0.0, -38762.55078125, -38815.390625, 0.0
113952.18327089002, -29493.619140625, 0.0, -29462.482421875, 0.0, 0.0, -38725.42578125, -38778.265625, 0.0
113952.18727089002, -28960.150390625, 0.0, -28975.638671875, 0.0, 0.0, -38697.30859375, -38750.125, 0.0
113952.19127089002, -28190.9140625, 0.0, -28207.8125, 0.0, 0.0, -38658.66015625, -38711.56640625, 0.0
113952.19527089002, -27306.701171875, 0.0, -27324.873046875, 0.0, 0.0, -38612.70703125, -38665.546875, 0.0
113952.19927089002, -27063.111328125, 0.0, -27081.57421875, 0.0, 0.0, -38585.90625, -38638.69921875, 0.0
113952.24079794601, -26511.068359375, 0.0, -26529.53125, 0.0, 0.0, -38555.953125, -38608.703125, 0.0
113952.24479794601, -25759.87109375, 0.0, -25778.244140625, 0.0, 0.0, -38520.796875, -38573.58984375, 0.0
113952.24879794601, -25142.3828125, 0.0, -25160.5546875, 0.0, 0.0, -38486.26171875, -38539.19140625, 0.0
113952.25279794601, -24607.302734375, 0.0, -24625.6328125, 0.0, 0.0, -38453.25, -38506.109375, 0.0
113952.25679794601, -24117.509765625, 0.0, -24135.525390625, 0.0, 0.0, -38424.3046875, -38477.1640625, 0.0
113952.26079794602, -23538.041015625, 0.0, -23556.123046875, 0.0, 0.0, -38391.9375, -38444.7109375, 0.0
113952.26479794602, -23042.771484375, 0.0, -23060.607421875, 0.0, 0.0, -38362.90234375, -38415.609375, 0.0
113952.26879794602, -22689.234375, 0.0, -22706.869140625, 0.0, 0.0, -38335.34375, -38388.1171875, 0.0
113952.27279794602, -22483.775390625, 0.0, -22501.322265625, 0.0, 0.0, -38312.03125, -38364.84765625, 0.0
113952.27679794602, -21969.955078125, 0.0, -21987.43359375, 0.0, 0.0, -38283.59765625, -38336.37109375, 0.0
113952.32036637401, -20447.419921875, 0.0, -20465.435546875, 0.0, 0.0, -38230.8046875, -38283.59765625, 0.0
113952.32436637401, -7251.33056640625, 0.0, -7269.70361328125, 0.0, 0.0, -37927.625, -37980.30859375, 0.0
113952.32836637401, -301.8826599121094, 0.0, -317.8194580078125, 0.0, 0.0, -37757.73046875, -37810.32421875, 0.0
113952.33236637402, -212.8109588623047, 0.0, -228.9265594482422, 0.0, 0.0, -37731.84765625, -37784.484375, 0.0
113952.33636637402, -203.02088928222656, 0.0, -218.51065063476562, 0.0, 0.0, -37709.203125, -37761.83984375, 0.0
113952.34036637402, -199.1763916015625, 0.0, -214.1297149658203, 0.0, 0.0, -37687.45703125, -37740.00390625, 0.0
113952.34436637402, -197.3882598876953, 0.0, -212.27452087402344, 0.0, 0.0, -37669.796875, -37722.34765625, 0.0
113952.34836637402, -196.00244140625, 0.0, -210.70989990234375, 0.0, 0.0, -37652.9453125, -37705.515625, 0.0
113952.35236637402, -193.67787170410156, 0.0, -208.0723876953125, 0.0, 0.0, -37635.421875, -37687.9921875, 0.0
113952.35636637402, -191.93443298339844, 0.0, -206.39601135253906, 0.0, 0.0, -37617.47265625, -37670.01953125, 0.0
113952.42562785801, -189.855712890625, 0.0, -204.1161346435547, 0.0, 0.0, -37601.265625, -37653.81640625, 0.0
113952.42962785802, -187.06175231933594, 0.0, -200.651611328125, 0.0, 0.0, -37583.765625, -37636.29296875, 0.0
113952.43362785802, -184.93833923339844, 0.0, -198.14820861816406, 0.0, 0.0, -37567.515625, -37619.9765625, 0.0
113952.43762785802, -180.6468048095703, 0.0, -193.34259033203125, 0.0, 0.0, -37547.48828125, -37599.96875, 0.0
113952.44162785802, -178.94805908203125, 0.0, -191.554443359375, 0.0, 0.0, -37527.55078125, -37580.03125, 0.0
113952.44562785802, -180.98207092285156, 0.0, -193.47669982910156, 0.0, 0.0, -37510.62890625, -37563.046875, 0.0
113952.44962785802, -180.13270568847656, 0.0, -192.71673583984375, 0.0, 0.0, -37493.1953125, -37545.65625, 0.0
113952.45362785802, -178.9033660888672, 0.0, -191.37564086914062, 0.0, 0.0, -37479.60546875, -37532.08984375, 0.0
113952.45762785802, -177.15992736816406, 0.0, -189.38633728027344, 0.0, 0.0, -37463.35546875, -37515.83984375, 0.0
113952.46162785802, -174.07537841796875, 0.0, -186.01121520996094, 0.0, 0.0, -37445.1171875, -37497.59765625, 0.0
113952.51896100001, -173.8295135498047, 0.0, -185.60888671875, 0.0, 0.0, -37429.5390625, -37481.953125, 0.0
113952.52296100001, -174.0306854248047, 0.0, -186.05592346191406, 0.0, 0.0, -37412.4375, -37464.80859375, 0.0
113952.52696100001, -174.27655029296875, 0.0, -186.3241424560547, 0.0, 0.0, -37395.453125, -37447.98046875, 0.0
113952.53096100001, -171.95196533203125, 0.0, -183.6195831298828, 0.0, 0.0, -37380.609375, -37433.046875, 0.0
113952.53496100001, -169.82855224609375, 0.0, -181.0714874267578, 0.0, 0.0, -37364.02734375, -37416.59765625, 0.0
113952.53896100001, -169.89561462402344, 0.0, -181.00442504882812, 0.0, 0.0, -37349.296875, -37401.80078125, 0.0
113952.54296100001, -169.87326049804688, 0.0, -181.0938262939453, 0.0, 0.0, -37332.30859375, -37384.6796875, 0.0
113952.54696100001, -169.6273956298828, 0.0, -181.27264404296875, 0.0, 0.0, -37315.05078125, -37367.46875, 0.0
113952.55096100002, -169.06858825683594, 0.0, -180.55738830566406, 0.0, 0.0, -37301.53125, -37353.98828125, 0.0
113952.55496100002, -168.55450439453125, 0.0, -179.52920532226562, 0.0, 0.0, -37288.0078125, -37340.4453125, 0.0
113952.618630365, -167.2581024169922, 0.0, -178.23280334472656, 0.0, 0.0, -37271.2890625, -37323.76953125, 0.0
113952.622630365, -166.6769561767578, 0.0, -177.71871948242188, 0.0, 0.0, -37253.78515625, -37306.2890625, 0.0
113952.626630365, -166.65460205078125, 0.0, -177.4281463623047, 0.0, 0.0, -37239.01171875, -37291.515625, 0.0
113952.630630365, -165.8275909423828, 0.0, -176.93641662597656, 0.0, 0.0, -37224.21484375, -37276.609375, 0.0
113952.634630365, -165.6934814453125, 0.0, -176.712890625, 0.0, 0.0, -37208.0546875, -37260.40234375, 0.0
113952.638630365, -165.67112731933594, 0.0, -176.4893798828125, 0.0, 0.0, -37192.83203125, -37245.16015625, 0.0
113952.64263036501, -165.3358612060547, 0.0, -176.22116088867188, 0.0, 0.0, -37179.625, -37232.015625, 0.0
113952.64663036501, -165.067626953125, 0.0, -175.50588989257812, 0.0, 0.0, -37165.18359375, -37217.5078125, 0.0
113952.65063036501, -164.53118896484375, 0.0, -175.08120727539062, 0.0, 0.0, -37148.77734375, -37201.1484375, 0.0
113952.65463036501, -164.41943359375, 0.0, -175.41648864746094, 0.0, 0.0, -37133.9375, -37186.171875, 0.0
113952.713199709, -164.5535430908203, 0.0, -175.59530639648438, 0.0, 0.0, -37122.13671875, -37174.4140625, 0.0
113952.717199709, -164.59825134277344, 0.0, -175.1035614013672, 0.0, 0.0, -37110.35546875, -37162.76953125, 0.0
113952.721199709, -164.7770538330078, 0.0, -175.21533203125, 0.0, 0.0, -37093.81640625, -37146.07421875, 0.0
113952.725199709, -164.6429443359375, 0.0, -175.03651428222656, 0.0, 0.0, -37078.34765625, -37130.6953125, 0.0
113952.729199709, -164.66529846191406, 0.0, -175.17062377929688, 0.0, 0.0, -37063.015625, -37115.40625, 0.0
113952.73319970901, -164.82176208496094, 0.0, -175.05886840820312, 0.0, 0.0, -37049.84765625, -37102.35546875, 0.0
113952.73719970901, -164.57589721679688, 0.0, -175.01416015625, 0.0, 0.0, -37036.34765625, -37088.7421875, 0.0
113952.74119970901, -164.57589721679688, 0.0, -175.3717803955078, 0.0, 0.0, -37022.1796875, -37074.59375, 0.0
113952.74519970901, -164.82176208496094, 0.0, -175.55059814453125, 0.0, 0.0, -37006.95703125, -37059.3046875, 0.0
113952.74919970901, -164.48648071289062, 0.0, -175.1482696533203, 0.0, 0.0, -36995.22265625, -37047.5703125, 0.0
113952.808620541, -163.95004272460938, 0.0, -174.2541961669922, 0.0, 0.0, -36980.08984375, -37032.52734375, 0.0
113952.81262054101, -164.10650634765625, 0.0, -174.34361267089844, 0.0, 0.0, -36963.7734375, -37016.03125, 0.0
113952.81662054101, -164.68765258789062, 0.0, -175.2376708984375, 0.0, 0.0, -36951.1875, -37003.4921875, 0.0
113952.82062054101, -164.9782257080078, 0.0, -175.59530639648438, 0.0, 0.0, -36938.8515625, -36991.15234375, 0.0
113952.82462054101, -164.7100067138672, 0.0, -175.17062377929688, 0.0, 0.0, -36925.08203125, -36977.31640625, 0.0
113952.82862054101, -164.7547149658203, 0.0, -175.21533203125, 0.0, 0.0, -36910.08203125, -36962.2734375, 0.0
113952.83262054101, -164.91116333007812, 0.0, -175.3494415283203, 0.0, 0.0, -36896.25, -36948.55078125, 0.0
113952.83662054101, -165.22409057617188, 0.0, -175.662353515625, 0.0, 0.0, -36883.1484375, -36935.49609375, 0.0
113952.84062054101, -165.2017364501953, 0.0, -176.1540985107422, 0.0, 0.0, -36870.09765625, -36922.3984375, 0.0
113952.84462054101, -165.4029083251953, 0.0, -176.22116088867188, 0.0, 0.0, -36855.546875, -36907.828125, 0.0
113952.902643003, -165.22409057617188, 0.0, -176.04234313964844, 0.0, 0.0, -36840.7265625, -36892.91796875, 0.0
113952.906643003, -165.38055419921875, 0.0, -175.9529266357422, 0.0, 0.0, -36826.265625, -36878.45703125, 0.0
113952.91064300301, -165.64877319335938, 0.0, -176.3552703857422, 0.0, 0.0, -36814.21875, -36866.4296875, 0.0
113952.91464300301, -165.80523681640625, 0.0, -176.4893798828125, 0.0, 0.0, -36798.32421875, -36850.58203125, 0.0
113952.91864300301, -165.8946533203125, 0.0, -176.4893798828125, 0.0, 0.0, -36785.47265625, -36837.6640625, 0.0
113952.92264300301, -165.84994506835938, 0.0, -176.6234893798828, 0.0, 0.0, -36772.10546875, -36824.34375, 0.0
113952.92664300301, -165.87229919433594, 0.0, -177.0481719970703, 0.0, 0.0, -36759.1875, -36811.4453125, 0.0
113952.93064300301, -165.3358612060547, 0.0, -176.60113525390625, 0.0, 0.0, -36745.91015625, -36798.078125, 0.0
113952.93464300301, -163.90533447265625, 0.0, -174.65652465820312, 0.0, 0.0, -36732.65625, -36784.87109375, 0.0
113952.93864300301, -163.52536010742188, 0.0, -174.0306854248047, 0.0, 0.0, -36719.8046875, -36771.92578125, 0.0
113953.00160136401, -163.63711547851562, 0.0, -173.8742218017578, 0.0, 0.0, -36705.41015625, -36757.53125, 0.0
113953.00560136401, -163.1453857421875, 0.0, -174.00833129882812, 0.0, 0.0, -36692.04296875, -36744.234375, 0.0
113953.00960136401, -162.74305725097656, 0.0, -173.80715942382812, 0.0, 0.0, -36679.4140625, -36731.60546875, 0.0
113953.01360136401, -162.92185974121094, 0.0, -173.8295135498047, 0.0, 0.0, -36664.1015625, -36716.2265625, 0.0
113953.01760136402, -162.92185974121094, 0.0, -173.78482055664062, 0.0, 0.0, -36651.96484375, -36704.13671875, 0.0
113953.02160136402, -162.6536407470703, 0.0, -173.51658630371094, 0.0, 0.0, -36639.24609375, -36691.37109375, 0.0
113953.02560136402, -162.2289581298828, 0.0, -173.47189331054688, 0.0, 0.0, -36626.3515625, -36678.6328125, 0.0
113953.02960136402, -162.5865936279297, 0.0, -173.6060028076172, 0.0, 0.0, -36612.4921875, -36664.640625, 0.0
113953.03360136402, -162.87716674804688, 0.0, -173.71775817871094, 0.0, 0.0, -36600.9375, -36653.015625, 0.0
113953.03760136402, -163.19007873535156, 0.0, -173.94126892089844, 0.0, 0.0, -36588.91015625, -36641.01171875, 0.0
113953.09388912401, -163.32420349121094, 0.0, -174.27655029296875, 0.0, 0.0, -36573.578125, -36625.65625, 0.0
113953.09788912401, -163.45831298828125, 0.0, -174.41065979003906, 0.0, 0.0, -36557.08203125, -36609.09375, 0.0
113953.10188912401, -163.16773986816406, 0.0, -174.54476928710938, 0.0, 0.0, -36547.89453125, -36600.06640625, 0.0
113953.10588912401, -163.4359588623047, 0.0, -174.65652465820312, 0.0, 0.0, -36536.36328125, -36588.59765625, 0.0
113953.10988912401, -163.48065185546875, 0.0, -174.47772216796875, 0.0, 0.0, -36521.67578125, -36573.80078125, 0.0
113953.11388912401, -163.4359588623047, 0.0, -174.47772216796875, 0.0, 0.0, -36505.29296875, -36557.4609375, 0.0
113953.11788912401, -163.32420349121094, 0.0, -174.5894775390625, 0.0, 0.0, -36491.45703125, -36543.58203125, 0.0
113953.12188912401, -163.32420349121094, 0.0, -174.36595153808594, 0.0, 0.0, -36477.6875, -36529.8359375, 0.0
113953.12588912401, -163.10067749023438, 0.0, -174.2541961669922, 0.0, 0.0, -36465.55078125, -36517.7421875, 0.0
113953.12988912401, -163.0112762451172, 0.0, -174.47772216796875, 0.0, 0.0, -36449.48046875, -36501.62890625, 0.0
113953.19334374201, -163.10067749023438, 0.0, -174.36595153808594, 0.0, 0.0, -36437.0546875, -36489.1328125, 0.0
113953.19734374201, -163.0112762451172, 0.0, -174.32125854492188, 0.0, 0.0, -36424.625, -36476.7265625, 0.0
113953.20134374201, -162.69834899902344, 0.0, -174.00833129882812, 0.0, 0.0, -36409.6953125, -36461.86328125, 0.0
113953.20534374201, -162.69834899902344, 0.0, -173.78482055664062, 0.0, 0.0, -36395.81640625, -36447.9609375, 0.0
113953.20934374201, -162.69834899902344, 0.0, -173.8742218017578, 0.0, 0.0, -36381.84375, -36433.9921875, 0.0
113953.21334374201, -162.63128662109375, 0.0, -173.76246643066406, 0.0, 0.0, -36369.39453125, -36421.51953125, 0.0
113953.21734374201, -162.67599487304688, 0.0, -174.0306854248047, 0.0, 0.0, -36356.67578125, -36408.734375, 0.0
113953.22134374201, -162.69834899902344, 0.0, -173.8742218017578, 0.0, 0.0, -36341.07421875, -36393.15625, 0.0
113953.22534374201, -162.92185974121094, 0.0, -173.8295135498047, 0.0, 0.0, -36328.58203125, -36380.66015625, 0.0
113953.22934374202, -163.0783233642578, 0.0, -174.0306854248047, 0.0, 0.0, -36316.9140625, -36369.0390625, 0.0
113953.286885983, -163.12303161621094, 0.0, -174.4553680419922, 0.0, 0.0, -36303.30078125, -36355.42578125, 0.0
113953.290885983, -162.720703125, 0.0, -174.18714904785156, 0.0, 0.0, -36288.99609375, -36341.12109375, 0.0
113953.294885983, -162.56423950195312, 0.0, -174.00833129882812, 0.0, 0.0, -36274.66796875, -36326.76953125, 0.0
113953.29888598301, -162.5865936279297, 0.0, -173.8742218017578, 0.0, 0.0, -36261.48046875, -36313.6484375, 0.0
113953.30288598301, -162.8101043701172, 0.0, -174.05303955078125, 0.0, 0.0, -36248.65234375, -36300.75390625, 0.0
113953.30688598301, -162.5865936279297, 0.0, -173.8295135498047, 0.0, 0.0, -36233.67578125, -36285.62109375, 0.0
113953.31088598301, -162.83245849609375, 0.0, -174.20950317382812, 0.0, 0.0, -36219.66015625, -36271.62890625, 0.0
113953.31488598301, -162.8101043701172, 0.0, -174.23184204101562, 0.0, 0.0, -36208.3046875, -36260.23046875, 0.0
113953.31888598301, -162.87716674804688, 0.0, -174.12008666992188, 0.0, 0.0, -36195.72265625, -36247.734375, 0.0
113953.32288598301, -162.6536407470703, 0.0, -173.71775817871094, 0.0, 0.0, -36181.015625, -36233.05078125, 0.0
113953.386454348, -162.20660400390625, 0.0, -173.94126892089844, 0.0, 0.0, -36165.859375, -36217.87109375, 0.0
113953.390454348, -162.34071350097656, 0.0, -173.8742218017578, 0.0, 0.0, -36154.99609375, -36207.078125, 0.0
113953.394454348, -162.2960205078125, 0.0, -173.65069580078125, 0.0, 0.0, -36144.671875, -36196.7265625, 0.0
113953.398454348, -162.25131225585938, 0.0, -173.5389404296875, 0.0, 0.0, -36131.796875, -36183.83203125, 0.0
113953.402454348, -162.2960205078125, 0.0, -173.3154296875, 0.0, 0.0, -36116.53125, -36168.49609375, 0.0
113953.406454348, -162.20660400390625, 0.0, -173.62835693359375, 0.0, 0.0, -36101.80078125, -36153.74609375, 0.0
113953.410454348, -161.98309326171875, 0.0, -173.4495391845703, 0.0, 0.0, -36088.703125, -36140.66796875, 0.0
113953.414454348, -162.0948486328125, 0.0, -173.1142578125, 0.0, 0.0, -36074.95703125, -36126.85546875, 0.0
113953.41845434801, -162.2960205078125, 0.0, -173.4495391845703, 0.0, 0.0, -36059.890625, -36111.8359375, 0.0
113953.42245434801, -162.18426513671875, 0.0, -173.22601318359375, 0.0, 0.0, -36046.92578125, -36098.9375, 0.0
113953.48763321001, -162.0054473876953, 0.0, -173.38247680664062, 0.0, 0.0, -36036.0625, -36088.09765625, 0.0
113953.49163321001, -161.91603088378906, 0.0, -173.13661193847656, 0.0, 0.0, -36024.0390625, -36075.984375, 0.0
113953.49563321001, -161.98309326171875, 0.0, -172.8907470703125, 0.0, 0.0, -36006.8515625, -36058.70703125, 0.0
113953.49963321001, -161.5360565185547, 0.0, -172.7566375732422, 0.0, 0.0, -35991.5625, -36043.44140625, 0.0
113953.50363321001, -161.51370239257812, 0.0, -172.66722106933594, 0.0, 0.0, -35982.15234375, -36034.03125, 0.0
113953.50763321001, -161.42430114746094, 0.0, -173.00250244140625, 0.0, 0.0, -35968.91796875, -36020.8203125, 0.0
113953.51163321002, -161.17843627929688, 0.0, -172.6895751953125, 0.0, 0.0, -35953.47265625, -36005.46484375, 0.0
113953.51563321002, -160.99961853027344, 0.0, -172.44371032714844, 0.0, 0.0, -35940.890625, -35992.87890625, 0.0
113953.51963321002, -161.20077514648438, 0.0, -172.3990020751953, 0.0, 0.0, -35927.61328125, -35979.58203125, 0.0
113953.52363321002, -161.08901977539062, 0.0, -172.0413818359375, 0.0, 0.0, -35912.52734375, -35964.44921875, 0.0
113953.58768481601, -160.93255615234375, 0.0, -172.0413818359375, 0.0, 0.0, -35897.37109375, -35949.25, 0.0
113953.59168481601, -160.99961853027344, 0.0, -172.42135620117188, 0.0, 0.0, -35884.7421875, -35936.62109375, 0.0
113953.59568481601, -161.1113739013672, 0.0, -172.42135620117188, 0.0, 0.0, -35872.046875, -35923.96875, 0.0
113953.59968481601, -160.86550903320312, 0.0, -172.22018432617188, 0.0, 0.0, -35858.56640625, -35910.53515625, 0.0
113953.60368481601, -160.77609252929688, 0.0, -172.01902770996094, 0.0, 0.0, -35844.6640625, -35896.65625, 0.0
113953.60768481602, -160.75375366210938, 0.0, -172.01902770996094, 0.0, 0.0, -35828.75, -35880.71875, 0.0
113953.61168481602, -160.84315490722656, 0.0, -171.68374633789062, 0.0, 0.0, -35819.00390625, -35870.953125, 0.0
113953.61568481602, -160.64198303222656, 0.0, -171.43788146972656, 0.0, 0.0, -35804.92578125, -35856.890625, 0.0
113953.61968481602, -160.50787353515625, 0.0, -171.52728271484375, 0.0, 0.0, -35791.84765625, -35843.79296875, 0.0
113953.62368481602, -160.5302276611328, 0.0, -171.52728271484375, 0.0, 0.0, -35776.625, -35828.70703125, 0.0
113953.68160389201, -160.3290557861328, 0.0, -171.66139221191406, 0.0, 0.0, -35761.5625, -35813.57421875, 0.0
113953.68560389201, -160.12789916992188, 0.0, -171.52728271484375, 0.0, 0.0, -35748.46484375, -35800.3203125, 0.0
113953.68960389201, -159.81497192382812, 0.0, -171.01319885253906, 0.0, 0.0, -35734.26953125, -35786.1953125, 0.0
113953.69360389201, -159.85968017578125, 0.0, -171.1249542236328, 0.0, 0.0, -35719.78515625, -35771.640625, 0.0
113953.69760389201, -159.6361541748047, 0.0, -171.34848022460938, 0.0, 0.0, -35706.890625, -35758.7890625, 0.0
113953.70160389201, -159.7479248046875, 0.0, -171.34848022460938, 0.0, 0.0, -35697.6796875, -35749.53515625, 0.0
113953.70560389201, -159.27853393554688, 0.0, -171.01319885253906, 0.0, 0.0, -35683.98046875, -35735.87890625, 0.0
113953.70960389201, -159.30088806152344, 0.0, -170.6332244873047, 0.0, 0.0, -35668.22265625, -35720.12109375, 0.0
113953.71360389201, -159.01031494140625, 0.0, -170.29794311523438, 0.0, 0.0, -35651.94921875, -35703.73828125, 0.0
113953.71760389202, -159.1220703125, 0.0, -170.3426513671875, 0.0, 0.0, -35639.20703125, -35691.01953125, 0.0
113953.775552609, -158.8314971923828, 0.0, -170.25323486328125, 0.0, 0.0, -35626.9375, -35678.76953125, 0.0
113953.779552609, -158.58563232421875, 0.0, -169.73915100097656, 0.0, 0.0, -35611.8515625, -35663.75, 0.0
113953.783552609, -158.8314971923828, 0.0, -169.87326049804688, 0.0, 0.0, -35598.640625, -35650.5625, 0.0
113953.787552609, -158.6303253173828, 0.0, -169.6497344970703, 0.0, 0.0, -35585.33984375, -35637.21875, 0.0
113953.79155260901, -158.5632781982422, 0.0, -169.56033325195312, 0.0, 0.0, -35569.828125, -35621.68359375, 0.0
113953.79555260901, -158.38446044921875, 0.0, -169.35916137695312, 0.0, 0.0, -35556.88671875, -35608.765625, 0.0
113953.79955260901, -158.4068145751953, 0.0, -169.47093200683594, 0.0, 0.0, -35543.921875, -35595.82421875, 0.0
113953.80355260901, -158.4068145751953, 0.0, -169.24740600585938, 0.0, 0.0, -35531.5390625, -35583.3515625, 0.0
113953.80755260901, -158.00448608398438, 0.0, -168.9568328857422, 0.0, 0.0, -35518.26171875, -35570.09765625, 0.0
113953.81155260901, -157.5127410888672, 0.0, -168.55450439453125, 0.0, 0.0, -35504.00390625, -35555.8125, 0.0
113953.867758798, -157.53509521484375, 0.0, -168.3086395263672, 0.0, 0.0, -35488.40234375, -35540.234375, 0.0
113953.871758798, -156.9986572265625, 0.0, -168.33099365234375, 0.0, 0.0, -35475.6171875, -35527.47265625, 0.0
113953.875758798, -157.04335021972656, 0.0, -168.39804077148438, 0.0, 0.0, -35463.58984375, -35515.4453125, 0.0
113953.87975879801, -157.06570434570312, 0.0, -167.8839569091797, 0.0, 0.0, -35450.89453125, -35502.73046875, 0.0
113953.88375879801, -156.90924072265625, 0.0, -167.90631103515625, 0.0, 0.0, -35435.515625, -35487.44140625, 0.0
113953.88775879801, -156.7080841064453, 0.0, -167.5933837890625, 0.0, 0.0, -35421.01171875, -35472.8671875, 0.0
113953.89175879801, -156.55162048339844, 0.0, -167.50396728515625, 0.0, 0.0, -35407.375, -35459.1640625, 0.0
113953.89575879801, -156.48455810546875, 0.0, -167.43692016601562, 0.0, 0.0, -35392.17578125, -35444.01171875, 0.0
113953.89975879801, -156.5069122314453, 0.0, -167.23574829101562, 0.0, 0.0, -35377.671875, -35429.55078125, 0.0
113953.90375879801, -156.26104736328125, 0.0, -167.12399291992188, 0.0, 0.0, -35363.7890625, -35415.64453125, 0.0
113953.94728092001, -156.19398498535156, 0.0, -166.98988342285156, 0.0, 0.0, -35351.765625, -35403.64453125, 0.0
113953.95128092001, -155.9481201171875, 0.0, -166.72166442871094, 0.0, 0.0, -35338.0390625, -35389.78515625, 0.0
113953.95528092001, -155.724609375, 0.0, -166.43109130859375, 0.0, 0.0, -35324.8984375, -35376.59765625, 0.0
113953.95928092001, -155.724609375, 0.0, -166.47579956054688, 0.0, 0.0, -35310.390625, -35362.2265625, 0.0
113953.96328092001, -155.41168212890625, 0.0, -166.4087371826172, 0.0, 0.0, -35298.1640625, -35350.08984375, 0.0
113953.96728092001, -155.05404663085938, 0.0, -166.43109130859375, 0.0, 0.0, -35283.6796875, -35335.60546875, 0.0
113953.97128092001, -155.0987548828125, 0.0, -166.2075653076172, 0.0, 0.0, -35267.43359375, -35319.35546875, 0.0
113953.97528092001, -155.1658172607422, 0.0, -166.16287231445312, 0.0, 0.0, -35254.15625, -35306.12109375, 0.0
113953.97928092002, -155.07640075683594, 0.0, -165.96170043945312, 0.0, 0.0, -35241.4609375, -35293.31640625, 0.0
113953.98328092002, -154.85289001464844, 0.0, -165.53701782226562, 0.0, 0.0, -35228.67578125, -35280.41796875, 0.0
113954.039236055, -154.71878051757812, 0.0, -165.29115295410156, 0.0, 0.0, -35213.87890625, -35265.6640625, 0.0
113954.043236055, -154.27174377441406, 0.0, -165.31350708007812, 0.0, 0.0, -35199.23828125, -35251.02734375, 0.0
113954.047236055, -154.20468139648438, 0.0, -165.08998107910156, 0.0, 0.0, -35187.92578125, -35239.73828125, 0.0
113954.051236055, -154.1599884033203, 0.0, -165.08998107910156, 0.0, 0.0, -35175.6796875, -35227.46875, 0.0
113954.055236055, -154.36114501953125, 0.0, -165.00057983398438, 0.0, 0.0, -35159.67578125, -35211.44140625, 0.0
113954.059236055, -154.27174377441406, 0.0, -164.9335174560547, 0.0, 0.0, -35143.984375, -35195.7734375, 0.0
113954.06323605501, -154.20468139648438, 0.0, -165.0452880859375, 0.0, 0.0, -35130.88671875, -35182.7421875, 0.0
113954.06723605501, -153.80235290527344, 0.0, -164.5535430908203, 0.0, 0.0, -35119.57421875, -35171.453125, 0.0
113954.07123605501, -153.93646240234375, 0.0, -164.26296997070312, 0.0, 0.0, -35105.55859375, -35157.4375, 0.0
113954.07523605501, -153.86941528320312, 0.0, -164.2853240966797, 0.0, 0.0, -35087.74609375, -35139.53515625, 0.0
113954.136021414, -153.71295166015625, 0.0, -164.3300323486328, 0.0, 0.0, -35073.484375, -35125.23046875, 0.0
113954.140021414, -153.4894256591797, 0.0, -164.3300323486328, 0.0, 0.0, -35063.0703125, -35114.79296875, 0.0
113954.144021414, -153.3329620361328, 0.0, -163.9947509765625, 0.0, 0.0, -35049.8828125, -35101.60546875, 0.0
113954.148021414, -153.24356079101562, 0.0, -164.1288604736328, 0.0, 0.0, -35035.82421875, -35087.6328125, 0.0
113954.152021414, -153.17649841308594, 0.0, -164.0841522216797, 0.0, 0.0, -35023.39453125, -35075.23046875, 0.0
113954.156021414, -153.13180541992188, 0.0, -163.83828735351562, 0.0, 0.0, -35010.1171875, -35061.86328125, 0.0
113954.160021414, -153.02005004882812, 0.0, -163.9276885986328, 0.0, 0.0, -34996.015625, -35047.73828125, 0.0
113954.164021414, -152.6400604248047, 0.0, -163.45831298828125, 0.0, 0.0, -34980.01171875, -35031.7109375, 0.0
113954.168021414, -152.79652404785156, 0.0, -163.32420349121094, 0.0, 0.0, -34965.7734375, -35017.60546875, 0.0
113954.17202141401, -152.79652404785156, 0.0, -163.16773986816406, 0.0, 0.0, -34956.296875, -35008.15234375, 0.0
113954.2150834, -152.86358642578125, 0.0, -162.92185974121094, 0.0, 0.0, -34943.578125, -34995.25390625, 0.0
113954.2190834, -152.57301330566406, 0.0, -163.12303161621094, 0.0, 0.0, -34925.29296875, -34976.92578125, 0.0
113954.22308340001, -152.08126831054688, 0.0, -162.8101043701172, 0.0, 0.0, -34910.5625, -34962.2421875, 0.0
113954.22708340001, -151.85775756835938, 0.0, -162.74305725097656, 0.0, 0.0, -34897.64453125, -34949.3203125, 0.0
113954.23108340001, -151.52247619628906, 0.0, -162.51953125, 0.0, 0.0, -34883.83203125, -34935.57421875, 0.0
113954.23508340001, -151.72364807128906, 0.0, -162.4301300048828, 0.0, 0.0, -34870.80078125, -34922.61328125, 0.0
113954.23908340001, -151.7012939453125, 0.0, -162.0948486328125, 0.0, 0.0, -34856.31640625, -34908.10546875, 0.0
113954.24308340001, -151.5671844482422, 0.0, -162.2960205078125, 0.0, 0.0, -34843.5546875, -34895.296875, 0.0
113954.24708340001, -151.45541381835938, 0.0, -162.13955688476562, 0.0, 0.0, -34829.359375, -34881.08203125, 0.0
113954.25108340001, -151.67893981933594, 0.0, -162.18426513671875, 0.0, 0.0, -34813.71484375, -34865.48046875, 0.0
113954.30859806, -151.85775756835938, 0.0, -162.4301300048828, 0.0, 0.0, -34799.453125, -34851.12890625, 0.0
113954.31259806, -151.9248046875, 0.0, -162.63128662109375, 0.0, 0.0, -34786.48828125, -34838.16796875, 0.0
113954.31659806, -151.67893981933594, 0.0, -162.56423950195312, 0.0, 0.0, -34775.046875, -34826.85546875, 0.0
113954.32059806, -151.81304931640625, 0.0, -162.2289581298828, 0.0, 0.0, -34760.5625, -34812.328125, 0.0
113954.32459806, -151.8354034423828, 0.0, -162.25131225585938, 0.0, 0.0, -34747.171875, -34798.8046875, 0.0
113954.32859806, -151.61187744140625, 0.0, -162.07249450683594, 0.0, 0.0, -34732.3984375, -34784.1640625, 0.0
113954.33259806, -151.67893981933594, 0.0, -161.98309326171875, 0.0, 0.0, -34721.55859375, -34773.32421875, 0.0
113954.33659806, -151.47776794433594, 0.0, -161.64781188964844, 0.0, 0.0, -34708.2578125, -34760.00390625, 0.0
113954.34059806001, -151.32130432128906, 0.0, -161.69252014160156, 0.0, 0.0, -34692.38671875, -34744.24609375, 0.0
113954.34459806001, -151.23190307617188, 0.0, -161.670166015625, 0.0, 0.0, -34677.30078125, -34729.06640625, 0.0
113954.39880498101, -151.38836669921875, 0.0, -161.7372283935547, 0.0, 0.0, -34662.59375, -34714.3359375, 0.0
113954.40280498101, -151.29896545410156, 0.0, -161.7595672607422, 0.0, 0.0, -34649.8984375, -34701.59765625, 0.0
113954.40680498102, -151.09779357910156, 0.0, -161.42430114746094, 0.0, 0.0, -34636.30859375, -34688.03125, 0.0
113954.41080498102, -151.12014770507812, 0.0, -161.26783752441406, 0.0, 0.0, -34622.09375, -34673.8359375, 0.0
113954.41480498102, -150.62840270996094, 0.0, -161.26783752441406, 0.0, 0.0, -34610.04296875, -34661.765625, 0.0
113954.41880498102, -150.62840270996094, 0.0, -161.08901977539062, 0.0, 0.0, -34595.8046875, -34647.59375, 0.0
113954.42280498102, -150.69546508789062, 0.0, -160.86550903320312, 0.0, 0.0, -34578.28125, -34630.00390625, 0.0
113954.42680498102, -150.47193908691406, 0.0, -160.77609252929688, 0.0, 0.0, -34565.4296875, -34617.0859375, 0.0
113954.43080498102, -150.42724609375, 0.0, -160.6866912841797, 0.0, 0.0, -34553.0234375, -34604.74609375, 0.0
113954.43480498102, -150.20372009277344, 0.0, -160.64198303222656, 0.0, 0.0, -34539.27734375, -34590.8671875, 0.0
113954.47922254, -150.06961059570312, 0.0, -160.23965454101562, 0.0, 0.0, -34524.86328125, -34576.49609375, 0.0
113954.48322254, -150.11431884765625, 0.0, -160.3961181640625, 0.0, 0.0, -34510.55859375, -34562.2578125, 0.0
113954.48722254, -150.58370971679688, 0.0, -160.75375366210938, 0.0, 0.0, -34499.55859375, -34551.23828125, 0.0
113954.49122254, -151.03073120117188, 0.0, -161.51370239257812, 0.0, 0.0, -34485.8125, -34537.37890625, 0.0
113954.49522254, -158.6303253173828, 0.0, -169.18035888671875, 0.0, 0.0, -34470.1015625, -34521.6875, 0.0
113954.49922254, -169.89561462402344, 0.0, -180.33387756347656, 0.0, 0.0, -34456.19921875, -34507.6953125, 0.0
113954.50322254, -174.07537841796875, 0.0, -184.31248474121094, 0.0, 0.0, -34443.27734375, -34494.77734375, 0.0
113954.50722254, -182.70315551757812, 0.0, -192.78379821777344, 0.0, 0.0, -34432.37109375, -34484.046875, 0.0
113954.51122254001, -169.56033325195312, 0.0, -179.52920532226562, 0.0, 0.0, -34417.9296875, -34469.609375, 0.0
113954.51522254001, -171.46023559570312, 0.0, -181.42910766601562, 0.0, 0.0, -34401.703125, -34453.359375, 0.0
113954.57473581, -156.90924072265625, 0.0, -166.98988342285156, 0.0, 0.0, -34387.2421875, -34438.83203125, 0.0
113954.57873581, -151.6342315673828, 0.0, -161.7372283935547, 0.0, 0.0, -34375.70703125, -34427.36328125, 0.0
113954.58273581, -151.5671844482422, 0.0, -161.49134826660156, 0.0, 0.0, -34362.765625, -34414.37890625, 0.0
113954.58673581001, -151.3660125732422, 0.0, -161.40194702148438, 0.0, 0.0, -34348.05859375, -34399.6484375, 0.0
113954.59073581001, -150.7178192138672, 0.0, -160.6866912841797, 0.0, 0.0, -34331.71875, -34383.33203125, 0.0
113954.59473581001, -149.91314697265625, 0.0, -160.3067169189453, 0.0, 0.0, -34321.8203125, -34373.40625, 0.0
113954.59873581001, -149.5108184814453, 0.0, -159.9043731689453, 0.0, 0.0, -34309.68359375, -34361.24609375, 0.0
113954.60273581001, -148.79556274414062, 0.0, -159.16677856445312, 0.0, 0.0, -34295.19921875, -34346.83203125, 0.0
113954.60673581001, -148.28147888183594, 0.0, -158.54092407226562, 0.0, 0.0, -34282.30078125, -34333.93359375, 0.0
113954.61073581001, -148.79556274414062, 0.0, -158.9208984375, 0.0, 0.0, -34266.36328125, -34317.953125, 0.0
113954.62606251001, -149.98020935058594, 0.0, -160.01614379882812, 0.0, 0.0, -34253.53515625, -34305.03125, 0.0
113954.63006251001, -150.49429321289062, 0.0, -161.08901977539062, 0.0, 0.0, -34238.4921875, -34289.9453125, 0.0
113954.63406251001, -152.01422119140625, 0.0, -162.18426513671875, 0.0, 0.0, -34224.65625, -34276.04296875, 0.0
113954.63806251001, -152.9082794189453, 0.0, -162.8548126220703, 0.0, 0.0, -34210.9765625, -34262.38671875, 0.0
113954.64206251001, -153.37767028808594, 0.0, -163.2347869873047, 0.0, 0.0, -34196.40234375, -34247.8359375, 0.0
113954.64606251002, -151.52247619628906, 0.0, -161.42430114746094, 0.0, 0.0, -34183.21484375, -34234.73828125, 0.0
113954.65006251002, -150.3601837158203, 0.0, -160.2620086669922, 0.0, 0.0, -34167.5234375, -34219.08984375, 0.0
113954.65406251002, -150.91897583007812, 0.0, -160.66433715820312, 0.0, 0.0, -34153.33203125, -34205.0078125, 0.0
113954.65806251002, -150.18136596679688, 0.0, -160.0608367919922, 0.0, 0.0, -34140.2109375, -34191.84375, 0.0
113954.66206251002, -150.06961059570312, 0.0, -160.3961181640625, 0.0, 0.0, -34127.40234375, -34178.96875, 0.0
113954.72489573101, -153.7576446533203, 0.0, -163.8606414794922, 0.0, 0.0, -34112.71875, -34164.1953125, 0.0
113954.72889573101, -156.9986572265625, 0.0, -167.23574829101562, 0.0, 0.0, -34098.48046875, -34149.98046875, 0.0
113954.73289573101, -156.9315948486328, 0.0, -167.1016387939453, 0.0, 0.0, -34085.16015625, -34136.6328125, 0.0
113954.73689573101, -154.4505615234375, 0.0, -164.6429443359375, 0.0, 0.0, -34072.59765625, -34124.1171875, 0.0
113954.74089573101, -148.21441650390625, 0.0, -158.38446044921875, 0.0, 0.0, -34056.81640625, -34108.2265625, 0.0
113954.74489573101, -145.71102905273438, 0.0, -155.79165649414062, 0.0, 0.0, -34043.8515625, -34095.3515625, 0.0
113954.74889573101, -145.50985717773438, 0.0, -155.5234375, 0.0, 0.0, -34034.01953125, -34085.60546875, 0.0
113954.75289573101, -145.4427947998047, 0.0, -155.4340362548828, 0.0, 0.0, -34019.7578125, -34071.2109375, 0.0
113954.75689573101, -145.2192840576172, 0.0, -155.05404663085938, 0.0, 0.0, -34004.35546875, -34055.87890625, 0.0
113954.76089573101, -144.90635681152344, 0.0, -154.42820739746094, 0.0, 0.0, -33990.765625, -34042.2421875, 0.0
113954.82168340101, -144.81695556640625, 0.0, -154.42820739746094, 0.0, 0.0, -33977.1328125, -34028.54296875, 0.0
113954.82568340101, -144.61578369140625, 0.0, -154.42820739746094, 0.0, 0.0, -33963.05078125, -34014.48046875, 0.0
113954.82968340101, -144.81695556640625, 0.0, -154.1823272705078, 0.0, 0.0, -33948.76953125, -34000.24609375, 0.0
113954.83368340101, -144.7052001953125, 0.0, -154.27174377441406, 0.0, 0.0, -33934.21875, -33985.6484375, 0.0
113954.83768340101, -144.34756469726562, 0.0, -154.1599884033203, 0.0, 0.0, -33921.65625, -33973.1328125, 0.0
113954.84168340101, -144.2134552001953, 0.0, -153.80235290527344, 0.0, 0.0, -33908.734375, -33960.30078125, 0.0
113954.84568340101, -144.10169982910156, 0.0, -153.84706115722656, 0.0, 0.0, -33893.22265625, -33944.65625, 0.0
113954.84968340101, -144.25816345214844, 0.0, -153.93646240234375, 0.0, 0.0, -33876.39453125, -33927.80078125, 0.0
113954.85368340102, -144.14639282226562, 0.0, -153.9141082763672, 0.0, 0.0, -33864.5703125, -33916.0234375, 0.0
113954.85768340102, -143.9452362060547, 0.0, -153.82470703125, 0.0, 0.0, -33852.87890625, -33904.2890625, 0.0
113954.898558108, -143.47584533691406, 0.0, -153.5341339111328, 0.0, 0.0, -33838.70703125, -33890.1171875, 0.0
113954.902558108, -143.47584533691406, 0.0, -153.35531616210938, 0.0, 0.0, -33822.4140625, -33873.8671875, 0.0
113954.906558108, -143.7440643310547, 0.0, -153.31060791015625, 0.0, 0.0, -33811.328125, -33862.66796875, 0.0
113954.91055810801, -143.7887725830078, 0.0, -153.04238891601562, 0.0, 0.0, -33797.4921875, -33848.85546875, 0.0
113954.91455810801, -143.5205535888672, 0.0, -153.04238891601562, 0.0, 0.0, -33781.44140625, -33832.875, 0.0
113954.91855810801, -143.47584533691406, 0.0, -152.8412322998047, 0.0, 0.0, -33768.27734375, -33819.796875, 0.0
113954.92255810801, -143.67701721191406, 0.0, -152.95298767089844, 0.0, 0.0, -33756.296875, -33807.6171875, 0.0
113954.92655810801, -143.81112670898438, 0.0, -153.51177978515625, 0.0, 0.0, -33742.796875, -33794.16015625, 0.0
113954.93055810801, -144.1687469482422, 0.0, -153.66824340820312, 0.0, 0.0, -33728.46875, -33779.90234375, 0.0
113954.93455810801, -144.03463745117188, 0.0, -153.64588928222656, 0.0, 0.0, -33715.52734375, -33766.98046875, 0.0
113954.97604629601, -143.25233459472656, 0.0, -152.52830505371094, 0.0, 0.0, -33699.9921875, -33751.37890625, 0.0
113954.98004629601, -142.85000610351562, 0.0, -151.94715881347656, 0.0, 0.0, -33685.84375, -33737.23046875, 0.0
113954.98404629601, -142.98411560058594, 0.0, -152.2153778076172, 0.0, 0.0, -33672.43359375, -33723.796875, 0.0
113954.98804629601, -143.02880859375, 0.0, -152.1259765625, 0.0, 0.0, -33658.10546875, -33709.46875, 0.0
113954.99204629601, -142.96176147460938, 0.0, -152.1259765625, 0.0, 0.0, -33645.09765625, -33696.484375, 0.0
113954.99604629602, -142.9394073486328, 0.0, -152.1259765625, 0.0, 0.0, -33631.640625, -33683.05078125, 0.0
113955.00004629602, -142.69354248046875, 0.0, -152.08126831054688, 0.0, 0.0, -33617.15625, -33668.54296875, 0.0
113955.00404629602, -142.6041259765625, 0.0, -151.7012939453125, 0.0, 0.0, -33601.64453125, -33653.12109375, 0.0
113955.00804629602, -142.49237060546875, 0.0, -151.52247619628906, 0.0, 0.0, -33587.05078125, -33638.5703125, 0.0
113955.01204629602, -142.53707885742188, 0.0, -151.5895233154297, 0.0, 0.0, -33575.3828125, -33626.90234375, 0.0
113955.06788425401, -142.06768798828125, 0.0, -151.25425720214844, 0.0, 0.0, -33560.98828125, -33612.41796875, 0.0
113955.07188425401, -141.91122436523438, 0.0, -150.8519287109375, 0.0, 0.0, -33546.75, -33598.08984375, 0.0
113955.07588425401, -141.84417724609375, 0.0, -151.075439453125, 0.0, 0.0, -33531.34765625, -33582.69140625, 0.0
113955.07988425401, -141.6206512451172, 0.0, -151.05308532714844, 0.0, 0.0, -33520.46484375, -33571.828125, 0.0
113955.08388425401, -141.59829711914062, 0.0, -150.8519287109375, 0.0, 0.0, -33509.0859375, -33560.40625, 0.0
113955.08788425401, -141.57594299316406, 0.0, -150.96368408203125, 0.0, 0.0, -33494.40234375, -33545.609375, 0.0
113955.09188425401, -141.64300537109375, 0.0, -150.7401580810547, 0.0, 0.0, -33478.01953125, -33529.31640625, 0.0
113955.09588425401, -141.50889587402344, 0.0, -150.7401580810547, 0.0, 0.0, -33464.18359375, -33515.48046875, 0.0
113955.09988425401, -141.330078125, 0.0, -150.6507568359375, 0.0, 0.0, -33450.81640625, -33502.1796875, 0.0
113955.10388425401, -141.0395050048828, 0.0, -150.62840270996094, 0.0, 0.0, -33437.58203125, -33489.015625, 0.0
113955.163888473, -140.7712860107422, 0.0, -150.3601837158203, 0.0, 0.0, -33421.7578125, -33473.2109375, 0.0
113955.167888473, -141.26303100585938, 0.0, -150.24842834472656, 0.0, 0.0, -33407.5, -33458.90625, 0.0
113955.171888473, -141.01715087890625, 0.0, -150.2931365966797, 0.0, 0.0, -33395.78515625, -33447.171875, 0.0
113955.17588847301, -141.12892150878906, 0.0, -150.18136596679688, 0.0, 0.0, -33380.8984375, -33432.2421875, 0.0
113955.17988847301, -141.48654174804688, 0.0, -150.60604858398438, 0.0, 0.0, -33366.6171875, -33417.9609375, 0.0
113955.18388847301, -141.7547607421875, 0.0, -151.2095489501953, 0.0, 0.0, -33352.58203125, -33403.98828125, 0.0
113955.18788847301, -142.3135528564453, 0.0, -151.65658569335938, 0.0, 0.0, -33339.28125, -33390.64453125, 0.0
113955.19188847301, -143.0958709716797, 0.0, -152.10362243652344, 0.0, 0.0, -33325.35546875, -33376.7890625, 0.0
113955.19588847301, -143.49819946289062, 0.0, -152.81887817382812, 0.0, 0.0, -33308.6796875, -33360.11328125, 0.0
113955.19988847301, -144.12405395507812, 0.0, -153.13180541992188, 0.0, 0.0, -33295.96484375, -33347.328125, 0.0
113955.25913935501, -144.4146270751953, 0.0, -153.4894256591797, 0.0, 0.0, -33282.171875, -33333.515625, 0.0
113955.26313935501, -144.81695556640625, 0.0, -154.02586364746094, 0.0, 0.0, -33267.890625, -33319.2109375, 0.0
113955.26713935501, -145.59925842285156, 0.0, -154.875244140625, 0.0, 0.0, -33251.70703125, -33303.02734375, 0.0
113955.27113935501, -146.98507690429688, 0.0, -156.05987548828125, 0.0, 0.0, -33237.9140625, -33289.28125, 0.0
113955.27513935501, -148.05795288085938, 0.0, -157.04335021972656, 0.0, 0.0, -33225.890625, -33277.25390625, 0.0
113955.27913935501, -148.68380737304688, 0.0, -157.89271545410156, 0.0, 0.0, -33212.8359375, -33264.1328125, 0.0
113955.28313935502, -149.01907348632812, 0.0, -158.4068145751953, 0.0, 0.0, -33196.765625, -33248.04296875, 0.0
113955.28713935502, -149.44375610351562, 0.0, -158.33975219726562, 0.0, 0.0, -33181.6328125, -33232.9765625, 0.0
113955.29113935502, -149.376708984375, 0.0, -158.18328857421875, 0.0, 0.0, -33169.02734375, -33220.32421875, 0.0
113955.29513935502, -150.0919647216797, 0.0, -158.60797119140625, 0.0, 0.0, -33155.81640625, -33207.13671875, 0.0
113955.35501016401, -150.0025634765625, 0.0, -158.89854431152344, 0.0, 0.0, -33142.40625, -33193.66015625, 0.0
113955.35901016401, -150.06961059570312, 0.0, -159.14442443847656, 0.0, 0.0, -33126.4921875, -33177.7890625, 0.0
113955.36301016402, -150.5613555908203, 0.0, -159.6361541748047, 0.0, 0.0, -33112.6796875, -33163.91015625, 0.0
113955.36701016402, -150.9860382080078, 0.0, -160.1949462890625, 0.0, 0.0, -33099.984375, -33151.16796875, 0.0
113955.37101016402, -151.18719482421875, 0.0, -160.3961181640625, 0.0, 0.0, -33086.70703125, -33137.9140625, 0.0
113955.37501016402, -151.90245056152344, 0.0, -160.97726440429688, 0.0, 0.0, -33072.8046875, -33123.96484375, 0.0
113955.37901016402, -153.17649841308594, 0.0, -161.9607391357422, 0.0, 0.0, -33059.7734375, -33110.93359375, 0.0
113955.38301016402, -153.64588928222656, 0.0, -162.4301300048828, 0.0, 0.0, -33046.6953125, -33097.8359375, 0.0
113955.38701016402, -154.51760864257812, 0.0, -163.34654235839844, 0.0, 0.0, -33032.32421875, -33083.51171875, 0.0
113955.39101016402, -156.17164611816406, 0.0, -164.91116333007812, 0.0, 0.0, -33017.640625, -33068.890625, 0.0
113955.44753045101, -159.50204467773438, 0.0, -168.3086395263672, 0.0, 0.0, -33003.2890625, -33054.4765625, 0.0
113955.45153045101, -164.59825134277344, 0.0, -173.78482055664062, 0.0, 0.0, -32989.25390625, -33040.4375, 0.0
113955.45553045101, -176.064697265625, 0.0, -185.07244873046875, 0.0, 0.0, -32978.0546875, -33029.1953125, 0.0
113955.45953045101, -204.65257263183594, 0.0, -213.4368133544922, 0.0, 0.0, -32963.48046875, -33014.62109375, 0.0
113955.46353045102, -251.41241455078125, 0.0, -260.0401916503906, 0.0, 0.0, -32949.51171875, -33000.6953125, 0.0
113955.46753045102, -309.6163635253906, 0.0, -318.0653381347656, 0.0, 0.0, -32937.015625, -32988.203125, 0.0
113955.47153045102, -250.47364807128906, 0.0, -259.3472900390625, 0.0, 0.0, -32923.91796875, -32975.19140625, 0.0
113955.47553045102, -168.97918701171875, 0.0, -178.09869384765625, 0.0, 0.0, -32907.734375, -32958.9453125, 0.0
113955.47953045102, -144.45932006835938, 0.0, -153.86941528320312, 0.0, 0.0, -32891.84375, -32943.0078125, 0.0
113955.48353045102, -140.1230926513672, 0.0, -149.2425994873047, 0.0, 0.0, -32879.328125, -32930.53515625, 0.0
113955.53795287601, -138.40200805664062, 0.0, -147.02976989746094, 0.0, 0.0, -32865.22265625, -32916.4296875, 0.0
113955.54195287601, -136.18917846679688, 0.0, -144.95106506347656, 0.0, 0.0, -32849.82421875, -32901.09765625, 0.0
113955.54595287601, -134.7586669921875, 0.0, -143.76641845703125, 0.0, 0.0, -32834.734375, -32885.875, 0.0
113955.54995287601, -134.64691162109375, 0.0, -143.69937133789062, 0.0, 0.0, -32820.96484375, -32872.17578125, 0.0
113955.55395287601, -142.06768798828125, 0.0, -150.80722045898438, 0.0, 0.0, -32808.0234375, -32859.3203125, 0.0
113955.55795287601, -148.326171875, 0.0, -157.1327667236328, 0.0, 0.0, -32793.453125, -32844.59375, 0.0
113955.56195287601, -138.2678985595703, 0.0, -147.00741577148438, 0.0, 0.0, -32778.140625, -32829.23828125, 0.0
113955.56595287602, -137.35147094726562, 0.0, -145.979248046875, 0.0, 0.0, -32765.130859375, -32816.2265625, 0.0
113955.56995287602, -134.4010467529297, 0.0, -143.34173583984375, 0.0, 0.0, -32753.6875, -32804.828125, 0.0
113955.57395287602, -132.25527954101562, 0.0, -141.30772399902344, 0.0, 0.0, -32738.82421875, -32790.0078125, 0.0
113955.626930832, -130.98121643066406, 0.0, -139.9666290283203, 0.0, 0.0, -32722.8203125, -32773.9375, 0.0
113955.630930832, -130.57888793945312, 0.0, -139.2960662841797, 0.0, 0.0, -32709.69921875, -32760.75, 0.0
113955.634930832, -204.69728088378906, 0.0, -213.63796997070312, 0.0, 0.0, -32699.26171875, -32750.37890625, 0.0
113955.638930832, -1684.516845703125, 0.0, -1693.1669921875, 0.0, 0.0, -32715.66796875, -32766.763671875, 0.0
113955.64293083201, -3255.240966796875, 0.0, -3264.136962890625, 0.0, 0.0, -32735.60546875, -32786.69921875, 0.0
113955.64693083201, -4815.0576171875, 0.0, -4824.08740234375, 0.0, 0.0, -32754.939453125, -32806.05859375, 0.0
113955.65093083201, -3440.134521484375, 0.0, -3449.6787109375, 0.0, 0.0, -32710.927734375, -32762.046875, 0.0
113955.65493083201, -524.03662109375, 0.0, -532.9996948242188, 0.0, 0.0, -32636.5859375, -32687.68359375, 0.0
113955.65893083201, -151.5001220703125, 0.0, -160.35140991210938, 0.0, 0.0, -32614.302734375, -32665.443359375, 0.0
113955.66293083201, -132.9928741455078, 0.0, -142.3135528564453, 0.0, 0.0, -32597.806640625, -32648.90234375, 0.0
113955.70397504201, -130.1094970703125, 0.0, -138.93844604492188, 0.0, 0.0, -32585.37890625, -32636.384765625, 0.0
113955.70797504201, -128.3213653564453, 0.0, -137.03854370117188, 0.0, 0.0, -32571.38671875, -32622.4375, 0.0
113955.71197504201, -128.14254760742188, 0.0, -136.54681396484375, 0.0, 0.0, -32559.875, -32611.060546875, 0.0
113955.71597504201, -127.9413833618164, 0.0, -136.21153259277344, 0.0, 0.0, -32544.67578125, -32595.728515625, 0.0
113955.71997504201, -127.85197448730469, 0.0, -135.96566772460938, 0.0, 0.0, -32530.70703125, -32581.712890625, 0.0
113955.72397504201, -127.42729187011719, 0.0, -135.7421417236328, 0.0, 0.0, -32519.396484375, -32570.4921875, 0.0
113955.72797504201, -127.04731750488281, 0.0, -135.20570373535156, 0.0, 0.0, -32505.046875, -32556.142578125, 0.0
113955.73197504201, -126.57792663574219, 0.0, -134.982177734375, 0.0, 0.0, -32491.412109375, -32542.552734375, 0.0
113955.73597504201, -125.75091552734375, 0.0, -134.2669219970703, 0.0, 0.0, -32478.60546875, -32529.6328125, 0.0
113955.73997504202, -125.6838607788086, 0.0, -134.15516662597656, 0.0, 0.0, -32464.947265625, -32515.798828125, 0.0
113955.784655145, -125.48269653320312, 0.0, -133.97634887695312, 0.0, 0.0, -32451.71484375, -32502.72265625, 0.0
113955.788655145, -125.77326965332031, 0.0, -133.86459350585938, 0.0, 0.0, -32435.890625, -32486.896484375, 0.0
113955.79265514501, -125.84032440185547, 0.0, -134.08811950683594, 0.0, 0.0, -32421.384765625, -32472.369140625, 0.0
113955.79665514501, -125.66150665283203, 0.0, -133.79754638671875, 0.0, 0.0, -32409.515625, -32460.521484375, 0.0
113955.80065514501, -125.6838607788086, 0.0, -133.5740203857422, 0.0, 0.0, -32395.9921875, -32446.9765625, 0.0
113955.80465514501, -125.54975128173828, 0.0, -133.97634887695312, 0.0, 0.0, -32381.62109375, -32432.626953125, 0.0
113955.80865514501, -125.41564178466797, 0.0, -134.15516662597656, 0.0, 0.0, -32368.27734375, -32419.328125, 0.0
113955.81265514501, -125.43798828125, 0.0, -133.5740203857422, 0.0, 0.0, -32354.75390625, -32405.71484375, 0.0
113955.81665514501, -125.10271453857422, 0.0, -133.30580139160156, 0.0, 0.0, -32339.7109375, -32390.62890625, 0.0
113955.82065514501, -125.03565979003906, 0.0, -133.52932739257812, 0.0, 0.0, -32324.6015625, -32375.5625, 0.0
113955.864017172, -125.23682403564453, 0.0, -133.484619140625, 0.0, 0.0, -32310.69921875, -32361.794921875, 0.0
113955.868017172, -125.03565979003906, 0.0, -133.12698364257812, 0.0, 0.0, -32297.130859375, -32348.13671875, 0.0
113955.872017172, -124.67803192138672, 0.0, -132.8587646484375, 0.0, 0.0, -32282.892578125, -32333.85546875, 0.0
113955.876017172, -124.70038604736328, 0.0, -133.03758239746094, 0.0, 0.0, -32268.341796875, -32319.3046875, 0.0
113955.880017172, -124.74508666992188, 0.0, -133.03758239746094, 0.0, 0.0, -32254.484375, -32305.513671875, 0.0
113955.88401717201, -124.87919616699219, 0.0, -132.7246551513672, 0.0, 0.0, -32242.033203125, -32292.97265625, 0.0
113955.88801717201, -124.36510467529297, 0.0, -132.83641052246094, 0.0, 0.0, -32231.013671875, -32282.04296875, 0.0
113955.89201717201, -124.36510467529297, 0.0, -132.52349853515625, 0.0, 0.0, -32213.87109375, -32264.85546875, 0.0
113955.89601717201, -124.67803192138672, 0.0, -132.63525390625, 0.0, 0.0, -32198.224609375, -32249.3203125, 0.0
113955.90001717201, -124.56626892089844, 0.0, -132.63525390625, 0.0, 0.0, -32187.115234375, -32238.255859375, 0.0
113955.90911735501, -124.36510467529297, 0.0, -132.3446807861328, 0.0, 0.0, -32174.666015625, -32225.76171875, 0.0
113955.91311735501, -124.4098129272461, 0.0, -132.38938903808594, 0.0, 0.0, -32158.103515625, -32209.220703125, 0.0
113955.91711735501, -124.36510467529297, 0.0, -132.54583740234375, 0.0, 0.0, -32142.703125, -32193.708984375, 0.0
113955.92111735501, -124.36510467529297, 0.0, -132.45643615722656, 0.0, 0.0, -32129.42578125, -32180.4765625, 0.0
113955.92511735501, -123.9180679321289, 0.0, -132.18821716308594, 0.0, 0.0, -32115.5, -32166.640625, 0.0
113955.92911735502, -123.96277618408203, 0.0, -132.16586303710938, 0.0, 0.0, -32101.060546875, -32152.11328125, 0.0
113955.93311735502, -123.7392578125, 0.0, -132.18821716308594, 0.0, 0.0, -32085.080078125, -32135.998046875, 0.0
113955.93711735502, -123.02400207519531, 0.0, -131.47296142578125, 0.0, 0.0, -32070.640625, -32121.669921875, 0.0
113955.94111735502, -123.02400207519531, 0.0, -131.51766967773438, 0.0, 0.0, -32058.7265625, -32109.7109375, 0.0
113955.94511735502, -122.73342895507812, 0.0, -131.2941436767578, 0.0, 0.0, -32043.662109375, -32094.66796875, 0.0
113955.98669291701, -123.24752044677734, 0.0, -131.20474243164062, 0.0, 0.0, -32028.5078125, -32079.55859375, 0.0
113955.99069291701, -122.77812957763672, 0.0, -130.89181518554688, 0.0, 0.0, -32014.046875, -32065.0078125, 0.0
113955.99469291701, -123.96277618408203, 0.0, -132.52349853515625, 0.0, 0.0, -32000.34375, -32051.26171875, 0.0
113955.99869291701, -126.19795227050781, 0.0, -134.53515625, 0.0, 0.0, -31986.59765625, -32037.560546875, 0.0
113956.00269291701, -127.31553649902344, 0.0, -135.83155822753906, 0.0, 0.0, -31970.705078125, -32021.6015625, 0.0
113956.00669291701, -128.45547485351562, 0.0, -137.3067626953125, 0.0, 0.0, -31953.427734375, -32004.390625, 0.0
113956.01069291701, -133.88694763183594, 0.0, -143.29702758789062, 0.0, 0.0, -31937.55859375, -31988.54296875, 0.0
113956.01469291702, -134.80337524414062, 0.0, -144.2134552001953, 0.0, 0.0, -31921.3984375, -31972.248046875, 0.0
113956.01869291702, -134.2669219970703, 0.0, -143.20762634277344, 0.0, 0.0, -31903.001953125, -31953.896484375, 0.0
113956.02269291702, -133.08229064941406, 0.0, -141.68771362304688, 0.0, 0.0, -31885.478515625, -31936.373046875, 0.0
113956.042688014, -132.47879028320312, 0.0, -141.26303100585938, 0.0, 0.0, -31870.50390625, -31921.443359375, 0.0
113956.046688014, -132.65760803222656, 0.0, -141.17361450195312, 0.0, 0.0, -31852.755859375, -31903.6953125, 0.0
113956.050688014, -132.23292541503906, 0.0, -140.6148223876953, 0.0, 0.0, -31837.064453125, -31888.048828125, 0.0
113956.054688014, -132.05410766601562, 0.0, -140.45835876464844, 0.0, 0.0, -31821.44140625, -31872.3359375, 0.0
113956.058688014, -131.98704528808594, 0.0, -140.95010375976562, 0.0, 0.0, -31806.017578125, -31856.98046875, 0.0
113956.062688014, -132.16586303710938, 0.0, -141.26303100585938, 0.0, 0.0, -31792.71875, -31843.703125, 0.0
113956.066688014, -134.6692657470703, 0.0, -144.079345703125, 0.0, 0.0, -31778.615234375, -31829.48828125, 0.0
113956.070688014, -133.30580139160156, 0.0, -142.42530822753906, 0.0, 0.0, -31758.56640625, -31809.482421875, 0.0
113956.074688014, -131.00357055664062, 0.0, -139.74310302734375, 0.0, 0.0, -31739.611328125, -31790.640625, 0.0
113956.07868801401, -130.06480407714844, 0.0, -138.37965393066406, 0.0, 0.0, -31724.12109375, -31775.0390625, 0.0
113956.13103156301, -129.23779296875, 0.0, -137.70909118652344, 0.0, 0.0, -31705.658203125, -31756.62109375, 0.0
113956.13503156301, -129.23779296875, 0.0, -137.48558044433594, 0.0, 0.0, -31691.017578125, -31741.935546875, 0.0
113956.13903156301, -129.50601196289062, 0.0, -137.26206970214844, 0.0, 0.0, -31675.1484375, -31726.021484375, 0.0
113956.14303156301, -128.56723022460938, 0.0, -136.54681396484375, 0.0, 0.0, -31659.32421875, -31710.173828125, 0.0
113956.14703156301, -128.6119384765625, 0.0, -136.85972595214844, 0.0, 0.0, -31644.50390625, -31695.33203125, 0.0
113956.15103156301, -129.28248596191406, 0.0, -137.39617919921875, 0.0, 0.0, -31627.740234375, -31678.61328125, 0.0
113956.15503156302, -129.41659545898438, 0.0, -137.61968994140625, 0.0, 0.0, -31611.9609375, -31662.83203125, 0.0
113956.15903156302, -129.5507049560547, 0.0, -137.61968994140625, 0.0, 0.0, -31599.734375, -31650.5625, 0.0
113956.16303156302, -130.04244995117188, 0.0, -138.0220184326172, 0.0, 0.0, -31584.244140625, -31634.9375, 0.0
113956.16703156302, -130.13185119628906, 0.0, -138.37965393066406, 0.0, 0.0, -31567.7265625, -31618.53125, 0.0
113956.21995793101, -130.6012420654297, 0.0, -139.05020141601562, 0.0, 0.0, -31553.353515625, -31604.205078125, 0.0
113956.22395793101, -131.18238830566406, 0.0, -139.9666290283203, 0.0, 0.0, -31539.876953125, -31590.7265625, 0.0
113956.22795793101, -131.47296142578125, 0.0, -140.01132202148438, 0.0, 0.0, -31524.6328125, -31575.52734375, 0.0
113956.23195793101, -131.20474243164062, 0.0, -139.38548278808594, 0.0, 0.0, -31507.95703125, -31558.830078125, 0.0
113956.23595793101, -130.78005981445312, 0.0, -138.983154296875, 0.0, 0.0, -31492.736328125, -31543.564453125, 0.0
113956.23995793101, -130.8247528076172, 0.0, -139.27371215820312, 0.0, 0.0, -31478.296875, -31529.1015625, 0.0
113956.24395793102, -130.8694610595703, 0.0, -139.1172637939453, 0.0, 0.0, -31462.560546875, -31513.43359375, 0.0
113956.24795793102, -130.84710693359375, 0.0, -138.33494567871094, 0.0, 0.0, -31448.748046875, -31499.576171875, 0.0
113956.25195793102, -130.3106689453125, 0.0, -138.1561279296875, 0.0, 0.0, -31435.42578125, -31486.27734375, 0.0
113956.25595793102, -130.13185119628906, 0.0, -138.40200805664062, 0.0, 0.0, -31419.646484375, -31470.40625, 0.0
113956.29593412501, -130.5118408203125, 0.0, -138.55845642089844, 0.0, 0.0, -31404.603515625, -31455.4765625, 0.0
113956.29993412501, -130.55653381347656, 0.0, -138.75962829589844, 0.0, 0.0, -31389.740234375, -31440.58984375, 0.0
113956.30393412501, -130.42242431640625, 0.0, -138.62551879882812, 0.0, 0.0, -31374.40625, -31425.2109375, 0.0
113956.30793412501, -130.1765594482422, 0.0, -138.3572998046875, 0.0, 0.0, -31361.263671875, -31412.001953125, 0.0
113956.31193412501, -130.28831481933594, 0.0, -138.62551879882812, 0.0, 0.0, -31347.650390625, -31398.478515625, 0.0
113956.31593412501, -130.35537719726562, 0.0, -138.60316467285156, 0.0, 0.0, -31332.318359375, -31383.279296875, 0.0
113956.31993412501, -130.35537719726562, 0.0, -138.33494567871094, 0.0, 0.0, -31317.453125, -31368.349609375, 0.0
113956.32393412502, -130.55653381347656, 0.0, -138.33494567871094, 0.0, 0.0, -31303.775390625, -31354.55859375, 0.0
113956.32793412502, -130.91416931152344, 0.0, -138.96080017089844, 0.0, 0.0, -31290.69921875, -31341.59375, 0.0
113956.33193412502, -130.78005981445312, 0.0, -138.89373779296875, 0.0, 0.0, -31277.421875, -31328.205078125, 0.0
113956.34744439101, -130.24362182617188, 0.0, -138.2678985595703, 0.0, 0.0, -31245.75, -31296.62109375, 0.0
113956.35544439101, -130.48948669433594, 0.0, -138.42434692382812, 0.0, 0.0, -31234.037109375, -31284.775390625, 0.0
113956.35944439101, -130.15420532226562, 0.0, -138.40200805664062, 0.0, 0.0, -31220.984375, -31271.72265625, 0.0
113956.36344439101, -130.42242431640625, 0.0, -138.6925811767578, 0.0, 0.0, -31206.208984375, -31257.015625, 0.0
113956.36744439101, -130.8024139404297, 0.0, -138.75962829589844, 0.0, 0.0, -31191.009765625, -31241.859375, 0.0
113956.37144439101, -131.13768005371094, 0.0, -139.16195678710938, 0.0, 0.0, -31177.6875, -31228.5390625, 0.0
113956.37544439101, -130.33302307128906, 0.0, -138.37965393066406, 0.0, 0.0, -31163.607421875, -31214.435546875, 0.0
113956.37944439102, -127.31553649902344, 0.0, -135.29510498046875, 0.0, 0.0, -31152.38671875, -31203.146484375, 0.0
113956.38344439102, -126.64498138427734, 0.0, -134.8480682373047, 0.0, 0.0, -31140.451171875, -31191.234375, 0.0
113956.43303583501, -126.9579086303711, 0.0, -135.49627685546875, 0.0, 0.0, -31127.84375, -31178.626953125, 0.0
113956.43703583501, -126.75674438476562, 0.0, -135.07159423828125, 0.0, 0.0, -31117.048828125, -31167.853515625, 0.0
113956.44103583501, -126.93555450439453, 0.0, -135.5186309814453, 0.0, 0.0, -31101.1328125, -31152.05078125, 0.0
113956.44503583502, -127.44964599609375, 0.0, -136.14447021484375, 0.0, 0.0, -31087.54296875, -31138.439453125, 0.0
113956.44903583502, -127.42729187011719, 0.0, -136.1668243408203, 0.0, 0.0, -31073.865234375, -31124.625, 0.0
113956.45303583502, -127.29318237304688, 0.0, -135.7421417236328, 0.0, 0.0, -31062.95703125, -31113.716796875, 0.0
113956.45703583502, -126.75674438476562, 0.0, -135.07159423828125, 0.0, 0.0, -31047.958984375, -31098.71875, 0.0
113956.46103583502, -126.1085433959961, 0.0, -134.08811950683594, 0.0, 0.0, -31031.462890625, -31082.201171875, 0.0
113956.46503583502, -124.81214141845703, 0.0, -132.79171752929688, 0.0, 0.0, -31018.611328125, -31069.326171875, 0.0
113956.46903583502, -123.00164794921875, 0.0, -130.69064331054688, 0.0, 0.0, -31010.095703125, -31060.85546875, 0.0
113956.52898893101, -122.33110046386719, 0.0, -130.5118408203125, 0.0, 0.0, -30997.3984375, -31048.181640625, 0.0
113956.53298893101, -122.28639221191406, 0.0, -130.06480407714844, 0.0, 0.0, -30981.39453125, -31032.201171875, 0.0
113956.53698893101, -121.83935546875, 0.0, -129.64012145996094, 0.0, 0.0, -30968.119140625, -31018.8125, 0.0
113956.54098893101, -121.90641784667969, 0.0, -129.84127807617188, 0.0, 0.0, -30955.66796875, -31006.2734375, 0.0
113956.54498893101, -123.11341094970703, 0.0, -131.11532592773438, 0.0, 0.0, -30942.48046875, -30993.107421875, 0.0
113956.54898893101, -186.7935333251953, 0.0, -194.57192993164062, 0.0, 0.0, -30928.623046875, -30979.33984375, 0.0
113956.55298893101, -1603.849365234375, 0.0, -1611.31494140625, 0.0, 0.0, -30946.572265625, -30997.197265625, 0.0
113956.55698893101, -1515.15771484375, 0.0, -1522.95849609375, 0.0, 0.0, -30932.9140625, -30983.630859375, 0.0
113956.56098893101, -239.65541076660156, 0.0, -247.6796875, 0.0, 0.0, -30892.255859375, -30942.951171875, 0.0
113956.56498893102, -155.41168212890625, 0.0, -163.1453857421875, 0.0, 0.0, -30874.822265625, -30925.515625, 0.0
113956.62389380601, -156.75277709960938, 0.0, -164.5088348388672, 0.0, 0.0, -30862.619140625, -30913.333984375, 0.0
113956.62789380601, -152.79652404785156, 0.0, -160.82080078125, 0.0, 0.0, -30849.474609375, -30900.212890625, 0.0
113956.63189380601, -147.83444213867188, 0.0, -155.54579162597656, 0.0, 0.0, -30834.87890625, -30885.55078125, 0.0
113956.63589380601, -145.88983154296875, 0.0, -153.22120666503906, 0.0, 0.0, -30820.931640625, -30871.58203125, 0.0
113956.63989380602, -145.75572204589844, 0.0, -153.5341339111328, 0.0, 0.0, -30805.486328125, -30856.13671875, 0.0
113956.64389380602, -145.82278442382812, 0.0, -153.57884216308594, 0.0, 0.0, -30791.29296875, -30841.96484375, 0.0
113956.64789380602, -145.59925842285156, 0.0, -153.02005004882812, 0.0, 0.0, -30779.224609375, -30829.89453125, 0.0
113956.65189380602, -145.50985717773438, 0.0, -152.9082794189453, 0.0, 0.0, -30765.701171875, -30816.39453125, 0.0
113956.65589380602, -145.3533935546875, 0.0, -152.79652404785156, 0.0, 0.0, -30749.83203125, -30800.525390625, 0.0
113956.65989380602, -144.88400268554688, 0.0, -152.4835968017578, 0.0, 0.0, -30736.666015625, -30787.314453125, 0.0
113956.710654455, -144.52638244628906, 0.0, -151.76834106445312, 0.0, 0.0, -30722.5625, -30773.234375, 0.0
113956.714654455, -144.079345703125, 0.0, -151.25425720214844, 0.0, 0.0, -30708.615234375, -30759.263671875, 0.0
113956.718654455, -143.69937133789062, 0.0, -151.276611328125, 0.0, 0.0, -30694.912109375, -30745.5390625, 0.0
113956.722654455, -143.54290771484375, 0.0, -151.075439453125, 0.0, 0.0, -30679.7578125, -30730.4296875, 0.0
113956.72665445501, -143.11822509765625, 0.0, -150.7401580810547, 0.0, 0.0, -30667.576171875, -30718.181640625, 0.0
113956.73065445501, -142.20179748535156, 0.0, -149.8013916015625, 0.0, 0.0, -30651.416015625, -30702.04296875, 0.0
113956.73465445501, -141.84417724609375, 0.0, -149.48846435546875, 0.0, 0.0, -30637.693359375, -30688.431640625, 0.0
113956.73865445501, -141.41949462890625, 0.0, -149.22024536132812, 0.0, 0.0, -30625.287109375, -30675.9140625, 0.0
113956.74265445501, -140.95010375976562, 0.0, -148.8849639892578, 0.0, 0.0, -30610.916015625, -30661.408203125, 0.0
113956.74665445501, -140.95010375976562, 0.0, -148.6614532470703, 0.0, 0.0, -30595.4921875, -30646.140625, 0.0
113956.813372057, -140.50306701660156, 0.0, -148.16970825195312, 0.0, 0.0, -30580.115234375, -30630.80859375, 0.0
113956.817372057, -140.1901397705078, 0.0, -148.0355987548828, 0.0, 0.0, -30565.474609375, -30615.98828125, 0.0
113956.821372057, -140.70423889160156, 0.0, -148.30381774902344, 0.0, 0.0, -30552.353515625, -30602.95703125, 0.0
113956.825372057, -139.4972381591797, 0.0, -147.0521240234375, 0.0, 0.0, -30536.908203125, -30587.53515625, 0.0
113956.82937205701, -138.2231903076172, 0.0, -145.93453979492188, 0.0, 0.0, -30519.00390625, -30569.5859375, 0.0
113956.83337205701, -137.32911682128906, 0.0, -144.81695556640625, 0.0, 0.0, -30505.615234375, -30556.064453125, 0.0
113956.83737205701, -136.50210571289062, 0.0, -144.3028564453125, 0.0, 0.0, -30492.853515625, -30543.369140625, 0.0
113956.84137205701, -139.51959228515625, 0.0, -147.43211364746094, 0.0, 0.0, -30477.654296875, -30528.28125, 0.0
113956.84537205701, -139.63134765625, 0.0, -147.9014892578125, 0.0, 0.0, -30460.578125, -30511.115234375, 0.0
113956.84937205701, -140.52542114257812, 0.0, -149.0414276123047, 0.0, 0.0, -30447.390625, -30498.0390625, 0.0
113956.909394069, -139.78781127929688, 0.0, -148.1026611328125, 0.0, 0.0, -30433.15234375, -30483.734375, 0.0
113956.91339406901, -139.16195678710938, 0.0, -147.20858764648438, 0.0, 0.0, -30417.974609375, -30468.580078125, 0.0
113956.91739406901, -139.0725555419922, 0.0, -147.14154052734375, 0.0, 0.0, -30402.91015625, -30453.55859375, 0.0
113956.92139406901, -139.31842041015625, 0.0, -147.14154052734375, 0.0, 0.0, -30386.212890625, -30436.884765625, 0.0
113956.92539406901, -138.80433654785156, 0.0, -147.20858764648438, 0.0, 0.0, -30372.154296875, -30422.826171875, 0.0
113956.92939406901, -138.60316467285156, 0.0, -147.00741577148438, 0.0, 0.0, -30357.1328125, -30407.669921875, 0.0
113956.93339406901, -138.33494567871094, 0.0, -146.71685791015625, 0.0, 0.0, -30341.353515625, -30391.8671875, 0.0
113956.93739406901, -138.13377380371094, 0.0, -146.6945037841797, 0.0, 0.0, -30327.115234375, -30377.673828125, 0.0
113956.94139406901, -138.2902374267578, 0.0, -146.5380401611328, 0.0, 0.0, -30312.966796875, -30363.525390625, 0.0
113956.94539406901, -138.2678985595703, 0.0, -146.71685791015625, 0.0, 0.0, -30297.90234375, -30348.505859375, 0.0
113956.96109422101, -138.37965393066406, 0.0, -146.85096740722656, 0.0, 0.0, -30285.5625, -30336.099609375, 0.0
113956.96509422101, -138.37965393066406, 0.0, -146.64979553222656, 0.0, 0.0, -30270.564453125, -30321.080078125, 0.0
113956.96909422101, -138.42434692382812, 0.0, -146.44862365722656, 0.0, 0.0, -30254.3828125, -30304.919921875, 0.0
113956.97309422102, -138.4914093017578, 0.0, -146.44862365722656, 0.0, 0.0, -30242.357421875, -30292.849609375, 0.0
113956.97709422102, -138.33494567871094, 0.0, -146.47097778320312, 0.0, 0.0, -30227.783203125, -30278.25390625, 0.0
113956.98109422102, -137.9326171875, 0.0, -146.22511291503906, 0.0, 0.0, -30212.78515625, -30263.279296875, 0.0
113956.98509422102, -137.70909118652344, 0.0, -146.00160217285156, 0.0, 0.0, -30198.01171875, -30248.525390625, 0.0
113956.98909422102, -137.41851806640625, 0.0, -145.95689392089844, 0.0, 0.0, -30184.421875, -30234.958984375, 0.0
113956.99309422102, -137.15029907226562, 0.0, -145.6886749267578, 0.0, 0.0, -30167.94921875, -30218.44140625, 0.0
113956.99709422102, -137.4408721923828, 0.0, -145.53221130371094, 0.0, 0.0, -30151.787109375, -30202.34765625, 0.0
113957.04570015601, -137.2173614501953, 0.0, -145.37574768066406, 0.0, 0.0, -30137.9296875, -30188.421875, 0.0
113957.04970015601, -137.1726531982422, 0.0, -145.4875030517578, 0.0, 0.0, -30123.177734375, -30173.55859375, 0.0
113957.05370015602, -137.53028869628906, 0.0, -145.5545654296875, 0.0, 0.0, -30110.056640625, -30160.482421875, 0.0
113957.05770015602, -137.5079345703125, 0.0, -145.5545654296875, 0.0, 0.0, -30093.62890625, -30144.0546875, 0.0
113957.06170015602, -136.882080078125, 0.0, -145.10752868652344, 0.0, 0.0, -30080.173828125, -30130.59765625, 0.0
113957.06570015602, -136.3232879638672, 0.0, -144.23580932617188, 0.0, 0.0, -30067.72265625, -30118.171875, 0.0
113957.06970015602, -134.1998748779297, 0.0, -141.9559326171875, 0.0, 0.0, -30054.06640625, -30104.537109375, 0.0
113957.07370015602, -130.78005981445312, 0.0, -138.96080017089844, 0.0, 0.0, -30036.630859375, -30086.990234375, 0.0
113957.07770015602, -128.3213653564453, 0.0, -136.61386108398438, 0.0, 0.0, -30021.90234375, -30072.349609375, 0.0
113957.08170015602, -127.65081024169922, 0.0, -135.6080322265625, 0.0, 0.0, -30008.46875, -30058.89453125, 0.0
113957.12854480601, -126.46617126464844, 0.0, -134.31163024902344, 0.0, 0.0, -29995.125, -30045.39453125, 0.0
113957.13254480601, -125.30387878417969, 0.0, -133.17169189453125, 0.0, 0.0, -29976.4609375, -30026.8203125, 0.0
113957.13654480601, -127.00260925292969, 0.0, -135.0939483642578, 0.0, 0.0, -29957.3046875, -30007.73046875, 0.0
113957.14054480601, -126.7120361328125, 0.0, -134.60220336914062, 0.0, 0.0, -29940.294921875, -29990.69921875, 0.0
113957.14454480601, -125.8626708984375, 0.0, -133.55166625976562, 0.0, 0.0, -29925.833984375, -29976.125, 0.0
113957.14854480601, -125.52739715576172, 0.0, -133.50697326660156, 0.0, 0.0, -29909.71875, -29959.943359375, 0.0
113957.15254480601, -124.90155029296875, 0.0, -132.65760803222656, 0.0, 0.0, -29892.708984375, -29942.955078125, 0.0
113957.15654480601, -124.2086410522461, 0.0, -131.98704528808594, 0.0, 0.0, -29879.41015625, -29929.6796875, 0.0
113957.16054480601, -124.76744079589844, 0.0, -132.43408203125, 0.0, 0.0, -29865.283203125, -29915.642578125, 0.0
113957.16454480602, -124.90155029296875, 0.0, -132.5681915283203, 0.0, 0.0, -29848.296875, -29898.69921875, 0.0
113957.20285555, -125.37093353271484, 0.0, -132.9705352783203, 0.0, 0.0, -29832.314453125, -29882.740234375, 0.0
113957.20685555, -125.3932876586914, 0.0, -133.1940460205078, 0.0, 0.0, -29819.126953125, -29869.529296875, 0.0
113957.21085555, -125.21446990966797, 0.0, -133.12698364257812, 0.0, 0.0, -29804.8671875, -29855.248046875, 0.0
113957.21485555, -124.74508666992188, 0.0, -132.36703491210938, 0.0, 0.0, -29788.86328125, -29839.19921875, 0.0
113957.21885555, -123.53809356689453, 0.0, -131.2941436767578, 0.0, 0.0, -29771.00390625, -29821.2734375, 0.0
113957.22285555, -123.18046569824219, 0.0, -131.00357055664062, 0.0, 0.0, -29755.625, -29805.873046875, 0.0
113957.22685555, -124.43215942382812, 0.0, -131.62942504882812, 0.0, 0.0, -29739.46484375, -29789.734375, 0.0
113957.23085555, -124.25334930419922, 0.0, -131.69647216796875, 0.0, 0.0, -29723.931640625, -29774.267578125, 0.0
113957.23485555, -124.36510467529297, 0.0, -132.05410766601562, 0.0, 0.0, -29707.904296875, -29758.263671875, 0.0
113957.23885555001, -124.47686767578125, 0.0, -132.18821716308594, 0.0, 0.0, -29693.15234375, -29743.466796875, 0.0
113957.294496967, -124.47686767578125, 0.0, -131.96470642089844, 0.0, 0.0, -29678.466796875, -29728.69140625, 0.0
113957.298496967, -124.43215942382812, 0.0, -132.0764617919922, 0.0, 0.0, -29664.498046875, -29714.654296875, 0.0
113957.30249696701, -124.27569580078125, 0.0, -131.74118041992188, 0.0, 0.0, -29648.046875, -29698.2265625, 0.0
113957.30649696701, -123.9180679321289, 0.0, -131.54000854492188, 0.0, 0.0, -29632.736328125, -29682.9375, 0.0
113957.31049696701, -124.14158630371094, 0.0, -131.51766967773438, 0.0, 0.0, -29617.73828125, -29668.0078125, 0.0
113957.31449696701, -123.98512268066406, 0.0, -131.18238830566406, 0.0, 0.0, -29603.521484375, -29653.74609375, 0.0
113957.31849696701, -123.89572143554688, 0.0, -131.2941436767578, 0.0, 0.0, -29589.1953125, -29639.3515625, 0.0
113957.32249696701, -123.7839584350586, 0.0, -131.7188262939453, 0.0, 0.0, -29573.90625, -29624.197265625, 0.0
113957.32649696701, -124.02983093261719, 0.0, -131.8752899169922, 0.0, 0.0, -29557.544921875, -29607.880859375, 0.0
113957.33049696701, -123.85101318359375, 0.0, -131.76353454589844, 0.0, 0.0, -29544.177734375, -29594.42578125, 0.0
113957.417765755, -123.96277618408203, 0.0, -131.8752899169922, 0.0, 0.0, -29531.99609375, -29582.244140625, 0.0
113957.421765755, -124.02983093261719, 0.0, -131.785888671875, 0.0, 0.0, -29516.462890625, -29566.708984375, 0.0
113957.425765755, -124.27569580078125, 0.0, -131.69647216796875, 0.0, 0.0, -29498.6484375, -29548.828125, 0.0
113957.429765755, -124.36510467529297, 0.0, -131.83058166503906, 0.0, 0.0, -29485.728515625, -29535.974609375, 0.0
113957.433765755, -124.34275817871094, 0.0, -131.9199981689453, 0.0, 0.0, -29471.6015625, -29521.9375, 0.0
113957.437765755, -124.36510467529297, 0.0, -131.74118041992188, 0.0, 0.0, -29455.822265625, -29506.091796875, 0.0
113957.44176575501, -124.25334930419922, 0.0, -132.0093994140625, 0.0, 0.0, -29440.287109375, -29490.556640625, 0.0
113957.44576575501, -124.27569580078125, 0.0, -132.12115478515625, 0.0, 0.0, -29425.958984375, -29476.162109375, 0.0
113957.44976575501, -124.09688568115234, 0.0, -132.03175354003906, 0.0, 0.0, -29413.263671875, -29463.466796875, 0.0
113957.45376575501, -124.14158630371094, 0.0, -131.89764404296875, 0.0, 0.0, -29397.21484375, -29447.41796875, 0.0
113957.50531884201, -124.18629455566406, 0.0, -131.9199981689453, 0.0, 0.0, -29382.619140625, -29432.77734375, 0.0
113957.50931884201, -124.47686767578125, 0.0, -132.03175354003906, 0.0, 0.0, -29369.3203125, -29419.58984375, 0.0
113957.51331884201, -124.52156829833984, 0.0, -131.94235229492188, 0.0, 0.0, -29354.345703125, -29404.658203125, 0.0
113957.51731884202, -124.27569580078125, 0.0, -131.83058166503906, 0.0, 0.0, -29338.251953125, -29388.564453125, 0.0
113957.52131884202, -124.49921417236328, 0.0, -131.8752899169922, 0.0, 0.0, -29322.203125, -29372.560546875, 0.0
113957.52531884202, -124.74508666992188, 0.0, -132.18821716308594, 0.0, 0.0, -29307.98828125, -29358.32421875, 0.0
113957.52931884202, -124.70038604736328, 0.0, -131.96470642089844, 0.0, 0.0, -29293.927734375, -29344.21875, 0.0
113957.53331884202, -124.14158630371094, 0.0, -131.62942504882812, 0.0, 0.0, -29280.494140625, -29330.830078125, 0.0
113957.53731884202, -124.47686767578125, 0.0, -132.0764617919922, 0.0, 0.0, -29263.150390625, -29313.462890625, 0.0
113957.54131884202, -124.56626892089844, 0.0, -132.2999725341797, 0.0, 0.0, -29249.873046875, -29300.208984375, 0.0
113957.59182463001, -124.38745880126953, 0.0, -132.03175354003906, 0.0, 0.0, -29238.7421875, -29289.123046875, 0.0
113957.59582463001, -124.5439224243164, 0.0, -131.89764404296875, 0.0, 0.0, -29224.458984375, -29274.728515625, 0.0
113957.59982463002, -124.27569580078125, 0.0, -132.0764617919922, 0.0, 0.0, -29208.41015625, -29258.58984375, 0.0
113957.60382463002, -124.02983093261719, 0.0, -131.69647216796875, 0.0, 0.0, -29195.06640625, -29245.1796875, 0.0
113957.60782463002, -124.02983093261719, 0.0, -131.80824279785156, 0.0, 0.0, -29182.1015625, -29232.349609375, 0.0
113957.61182463002, -124.36510467529297, 0.0, -132.12115478515625, 0.0, 0.0, -29168.1328125, -29218.40234375, 0.0
113957.61582463002, -124.65567779541016, 0.0, -132.52349853515625, 0.0, 0.0, -29153.111328125, -29203.291015625, 0.0
113957.61982463002, -124.74508666992188, 0.0, -132.52349853515625, 0.0, 0.0, -29138.091796875, -29188.361328125, 0.0
113957.62382463002, -124.56626892089844, 0.0, -131.96470642089844, 0.0, 0.0, -29124.189453125, -29174.48046875, 0.0
113957.62782463002, -124.29804992675781, 0.0, -131.56236267089844, 0.0, 0.0, -29112.25390625, -29162.4765625, 0.0
113957.677972446, -124.65567779541016, 0.0, -132.12115478515625, 0.0, 0.0, -29095.578125, -29145.7578125, 0.0
113957.68197244601, -124.56626892089844, 0.0, -132.2999725341797, 0.0, 0.0, -29081.095703125, -29131.275390625, 0.0
113957.68597244601, -124.9686050415039, 0.0, -132.7246551513672, 0.0, 0.0, -29066.298828125, -29116.41015625, 0.0
113957.68997244601, -124.9686050415039, 0.0, -132.74700927734375, 0.0, 0.0, -29050.13671875, -29100.294921875, 0.0
113957.69397244601, -124.52156829833984, 0.0, -131.96470642089844, 0.0, 0.0, -29034.849609375, -29085.029296875, 0.0
113957.69797244601, -124.47686767578125, 0.0, -132.16586303710938, 0.0, 0.0, -29021.4375, -29071.662109375, 0.0
113957.70197244601, -124.5439224243164, 0.0, -132.47879028320312, 0.0, 0.0, -29009.189453125, -29059.390625, 0.0
113957.70597244601, -124.00747680664062, 0.0, -132.03175354003906, 0.0, 0.0, -28995.533203125, -29045.779296875, 0.0
113957.70997244601, -123.18046569824219, 0.0, -130.53419494628906, 0.0, 0.0, -28980.4453125, -29030.580078125, 0.0
113957.71397244601, -122.73342895507812, 0.0, -129.77423095703125, 0.0, 0.0, -28964.888671875, -29014.888671875, 0.0
113957.732258563, -122.57696533203125, 0.0, -129.6624755859375, 0.0, 0.0, -28953.623046875, -29003.7578125, 0.0
113957.736258563, -122.2193374633789, 0.0, -129.5507049560547, 0.0, 0.0, -28943.384765625, -28993.431640625, 0.0
113957.740258563, -122.97930145263672, 0.0, -130.4000701904297, 0.0, 0.0, -28929.83984375, -28979.974609375, 0.0
113957.744258563, -124.1639404296875, 0.0, -131.69647216796875, 0.0, 0.0, -28914.306640625, -28964.44140625, 0.0
113957.748258563, -124.99095153808594, 0.0, -132.61289978027344, 0.0, 0.0, -28900.044921875, -28950.224609375, 0.0
113957.752258563, -126.6673355102539, 0.0, -134.08811950683594, 0.0, 0.0, -28888.712890625, -28938.84765625, 0.0
113957.75625856301, -132.5681915283203, 0.0, -139.7654571533203, 0.0, 0.0, -28875.59375, -28925.75, 0.0
113957.76025856301, -196.6282958984375, 0.0, -203.93731689453125, 0.0, 0.0, -28863.634765625, -28913.791015625, 0.0
113957.76425856301, -168.12982177734375, 0.0, -175.3047332763672, 0.0, 0.0, -28849.978515625, -28900.044921875, 0.0
113957.76825856301, -128.36607360839844, 0.0, -135.4739227294922, 0.0, 0.0, -28836.5, -28886.65625, 0.0
113957.801104475, -143.69937133789062, 0.0, -150.69546508789062, 0.0, 0.0, -28823.580078125, -28873.625, 0.0
113957.805104475, -144.97341918945312, 0.0, -152.03656005859375, 0.0, 0.0, -28807.77734375, -28857.689453125, 0.0
113957.809104475, -129.90834045410156, 0.0, -137.26206970214844, 0.0, 0.0, -28794.455078125, -28844.501953125, 0.0
113957.813104475, -127.36023712158203, 0.0, -134.4680938720703, 0.0, 0.0, -28778.943359375, -28829.01171875, 0.0
113957.817104475, -365.473388671875, 0.0, -372.51416015625, 0.0, 0.0, -28769.51171875, -28819.6015625, 0.0
113957.821104475, -1718.7821044921875, 0.0, -1725.308837890625, 0.0, 0.0, -28783.951171875, -28834.107421875, 0.0
113957.825104475, -4191.376953125, 0.0, -4198.1494140625, 0.0, 0.0, -28825.123046875, -28875.34765625, 0.0
113957.82910447501, -5228.2294921875, 0.0, -5235.56103515625, 0.0, 0.0, -28835.359375, -28885.494140625, 0.0
113957.83310447501, -5321.52587890625, 0.0, -5328.96875, 0.0, 0.0, -28822.955078125, -28873.021484375, 0.0
113957.83710447501, -5361.9599609375, 0.0, -5369.26904296875, 0.0, 0.0, -28809.833984375, -28860.03515625, 0.0
113957.872988859, -5396.1806640625, 0.0, -5404.00341796875, 0.0, 0.0, -28794.8359375, -28844.880859375, 0.0
113957.876988859, -5392.62646484375, 0.0, -5400.3828125, 0.0, 0.0, -28780.822265625, -28830.77734375, 0.0
113957.880988859, -5362.384765625, 0.0, -5369.8056640625, 0.0, 0.0, -28766.314453125, -28816.29296875, 0.0
113957.884988859, -5357.51220703125, 0.0, -5364.9326171875, 0.0, 0.0, -28753.0390625, -28803.150390625, 0.0
113957.888988859, -5367.1455078125, 0.0, -5374.83447265625, 0.0, 0.0, -28737.927734375, -28788.01953125, 0.0
113957.892988859, -5375.7958984375, 0.0, -5383.57421875, 0.0, 0.0, -28723.287109375, -28773.2890625, 0.0
113957.896988859, -5381.7861328125, 0.0, -5389.25146484375, 0.0, 0.0, -28710.390625, -28760.48046875, 0.0
113957.90098885901, -5385.00439453125, 0.0, -5392.67138671875, 0.0, 0.0, -28697.271484375, -28747.40625, 0.0
113957.90498885901, -5381.89794921875, 0.0, -5389.3857421875, 0.0, 0.0, -28681.892578125, -28731.9609375, 0.0
113957.90898885901, -5371.21337890625, 0.0, -5378.63427734375, 0.0, 0.0, -28668.123046875, -28718.125, 0.0
113957.974171908, -5355.47802734375, 0.0, -5362.87646484375, 0.0, 0.0, -28654.84765625, -28704.826171875, 0.0
113957.978171908, -5340.47998046875, 0.0, -5348.03466796875, 0.0, 0.0, -28638.396484375, -28688.375, 0.0
113957.982171908, -5287.30517578125, 0.0, -5294.85986328125, 0.0, 0.0, -28621.005859375, -28670.984375, 0.0
113957.986171908, -5126.4619140625, 0.0, -5134.39697265625, 0.0, 0.0, -28603.59375, -28653.55078125, 0.0
113957.99017190801, -4867.3603515625, 0.0, -4875.27294921875, 0.0, 0.0, -28586.40625, -28636.33984375, 0.0
113957.99417190801, -4515.05224609375, 0.0, -4523.009765625, 0.0, 0.0, -28564.45703125, -28614.435546875, 0.0
113957.99817190801, -4064.575439453125, 0.0, -4072.0185546875, 0.0, 0.0, -28539.736328125, -28589.736328125, 0.0
113958.00217190801, -3756.3447265625, 0.0, -3764.391357421875, 0.0, 0.0, -28517.3828125, -28567.33984375, 0.0
113958.00617190801, -3571.048828125, 0.0, -3578.871826171875, 0.0, 0.0, -28499.078125, -28548.98828125, 0.0
113958.01017190801, -2938.7626953125, 0.0, -2946.384521484375, 0.0, 0.0, -28472.478515625, -28522.412109375, 0.0
113958.02565622501, -2267.96435546875, 0.0, -2275.4970703125, 0.0, 0.0, -28441.0078125, -28490.96484375, 0.0
113958.02965622502, -1892.924560546875, 0.0, -1900.5465087890625, 0.0, 0.0, -28416.890625, -28466.779296875, 0.0
113958.03365622502, -1634.5606689453125, 0.0, -1642.339111328125, 0.0, 0.0, -28399.74609375, -28449.568359375, 0.0
113958.03765622502, -1234.3304443359375, 0.0, -1241.88525390625, 0.0, 0.0, -28376.478515625, -28426.3671875, 0.0
113958.04165622502, -978.3582153320312, 0.0, -985.8013305664062, 0.0, 0.0, -28357.0546875, -28406.966796875, 0.0
113958.04565622502, -819.10205078125, 0.0, -826.7686767578125, 0.0, 0.0, -28339.21875, -28389.12890625, 0.0
113958.04965622502, -710.5396118164062, 0.0, -717.9827270507812, 0.0, 0.0, -28321.73828125, -28371.494140625, 0.0
113958.05365622502, -654.123779296875, 0.0, -661.3657836914062, 0.0, 0.0, -28306.115234375, -28355.9140625, 0.0
113958.05765622502, -634.834228515625, 0.0, -642.1655883789062, 0.0, 0.0, -28289.216796875, -28338.994140625, 0.0
113958.06165622502, -600.703125, 0.0, -608.4368286132812, 0.0, 0.0, -28273.146484375, -28322.857421875, 0.0
113958.119289252, -597.3727416992188, 0.0, -605.553466796875, 0.0, 0.0, -28258.52734375, -28308.349609375, 0.0
113958.123289252, -575.6915283203125, 0.0, -583.7828369140625, 0.0, 0.0, -28241.96484375, -28291.8984375, 0.0
113958.127289252, -571.1764526367188, 0.0, -579.468994140625, 0.0, 0.0, -28226.498046875, -28276.41015625, 0.0
113958.131289252, -578.7537231445312, 0.0, -586.8450317382812, 0.0, 0.0, -28210.60546875, -28260.451171875, 0.0
113958.13528925201, -594.3328857421875, 0.0, -602.357177734375, 0.0, 0.0, -28193.595703125, -28243.486328125, 0.0
113958.13928925201, -594.1987915039062, 0.0, -602.40185546875, 0.0, 0.0, -28180.677734375, -28230.56640625, 0.0
113958.14328925201, -533.7596435546875, 0.0, -542.4097900390625, 0.0, 0.0, -28165.791015625, -28215.544921875, 0.0
113958.14728925201, -418.9163818359375, 0.0, -427.0077209472656, 0.0, 0.0, -28147.126953125, -28196.8828125, 0.0
113958.15128925201, -290.17034912109375, 0.0, -297.6581726074219, 0.0, 0.0, -28128.93359375, -28178.7109375, 0.0
113958.15528925201, -216.61074829101562, 0.0, -224.27740478515625, 0.0, 0.0, -28113.5546875, -28163.3984375, 0.0
113958.193592426, -195.30953979492188, 0.0, -203.19970703125, 0.0, 0.0, -28099.517578125, -28149.33984375, 0.0
113958.197592426, -182.68080139160156, 0.0, -190.3474578857422, 0.0, 0.0, -28082.84375, -28132.666015625, 0.0
113958.201592426, -173.00250244140625, 0.0, -180.6020965576172, 0.0, 0.0, -28068.44921875, -28118.2265625, 0.0
113958.205592426, -164.5535430908203, 0.0, -172.1307830810547, 0.0, 0.0, -28053.517578125, -28103.33984375, 0.0
113958.209592426, -158.9879608154297, 0.0, -166.8334197998047, 0.0, 0.0, -28039.90625, -28089.705078125, 0.0
113958.21359242601, -155.63519287109375, 0.0, -163.90533447265625, 0.0, 0.0, -28023.298828125, -28073.09765625, 0.0
113958.21759242601, -153.60118103027344, 0.0, -161.9607391357422, 0.0, 0.0, -28006.6015625, -28056.37890625, 0.0
113958.22159242601, -153.3329620361328, 0.0, -161.29019165039062, 0.0, 0.0, -27993.123046875, -28042.923828125, 0.0
113958.22559242601, -153.3329620361328, 0.0, -161.29019165039062, 0.0, 0.0, -27979.421875, -28029.177734375, 0.0
113958.22959242601, -151.74598693847656, 0.0, -159.8373260498047, 0.0, 0.0, -27963.75390625, -28013.6640625, 0.0
113958.24927387701, -152.75181579589844, 0.0, -161.06666564941406, 0.0, 0.0, -27945.24609375, -27995.11328125, 0.0
113958.25327387701, -154.7634735107422, 0.0, -162.56423950195312, 0.0, 0.0, -27930.046875, -27979.82421875, 0.0
113958.25727387701, -154.8975830078125, 0.0, -162.31837463378906, 0.0, 0.0, -27914.021484375, -27963.84375, 0.0
113958.26127387701, -153.82470703125, 0.0, -161.62545776367188, 0.0, 0.0, -27897.748046875, -27947.638671875, 0.0
113958.26527387701, -145.53221130371094, 0.0, -153.13180541992188, 0.0, 0.0, -27882.259765625, -27932.080078125, 0.0
113958.26927387701, -144.8616485595703, 0.0, -152.19302368164062, 0.0, 0.0, -27869.00390625, -27918.826171875, 0.0
113958.27327387701, -163.95004272460938, 0.0, -171.1920166015625, 0.0, 0.0, -27854.900390625, -27904.72265625, 0.0
113958.27727387701, -174.32125854492188, 0.0, -181.85379028320312, 0.0, 0.0, -27841.04296875, -27890.865234375, 0.0
113958.28127387702, -188.84988403320312, 0.0, -196.36007690429688, 0.0, 0.0, -27822.22265625, -27872.021484375, 0.0
113958.28527387702, -209.18997192382812, 0.0, -216.6331024169922, 0.0, 0.0, -27805.837890625, -27855.615234375, 0.0
113958.33750879401, -205.21136474609375, 0.0, -212.90036010742188, 0.0, 0.0, -27793.857421875, -27843.568359375, 0.0
113958.34150879401, -154.49525451660156, 0.0, -162.13955688476562, 0.0, 0.0, -27779.57421875, -27829.240234375, 0.0
113958.34550879401, -421.33038330078125, 0.0, -428.9299621582031, 0.0, 0.0, -27765.716796875, -27815.3828125, 0.0
113958.34950879401, -1062.624267578125, 0.0, -1069.7545166015625, 0.0, 0.0, -27763.34765625, -27813.03515625, 0.0
113958.35350879401, -795.0291748046875, 0.0, -802.5841064453125, 0.0, 0.0, -27744.572265625, -27794.21484375, 0.0
113958.35750879401, -238.60487365722656, 0.0, -245.93624877929688, 0.0, 0.0, -27715.447265625, -27765.13671875, 0.0
113958.36150879401, -214.59910583496094, 0.0, -221.99752807617188, 0.0, 0.0, -27698.7734375, -27748.55078125, 0.0
113958.36550879401, -385.7687683105469, 0.0, -393.1895446777344, 0.0, 0.0, -27686.078125, -27735.85546875, 0.0
113958.36950879401, -442.6092529296875, 0.0, -450.14178466796875, 0.0, 0.0, -27671.4140625, -27721.125, 0.0
113958.37350879401, -392.09429931640625, 0.0, -400.0291748046875, 0.0, 0.0, -27656.86328125, -27706.57421875, 0.0
113958.42434586301, -242.02468872070312, 0.0, -249.55722045898438, 0.0, 0.0, -27639.138671875, -27688.89453125, 0.0
113958.42834586301, -147.40975952148438, 0.0, -154.8081817626953, 0.0, 0.0, -27621.99609375, -27671.728515625, 0.0
113958.43234586301, -151.61187744140625, 0.0, -159.09971618652344, 0.0, 0.0, -27606.125, -27655.857421875, 0.0
113958.43634586301, -244.05870056152344, 0.0, -251.83709716796875, 0.0, 0.0, -27592.84765625, -27642.4921875, 0.0
113958.44034586301, -301.7709045410156, 0.0, -309.34814453125, 0.0, 0.0, -27577.73828125, -27627.515625, 0.0
113958.44434586301, -325.97784423828125, 0.0, -333.59979248046875, 0.0, 0.0, -27561.466796875, -27611.109375, 0.0
113958.44834586301, -264.2646789550781, 0.0, -271.95367431640625, 0.0, 0.0, -27545.91015625, -27595.486328125, 0.0
113958.45234586301, -169.8061981201172, 0.0, -177.40579223632812, 0.0, 0.0, -27530.77734375, -27580.353515625, 0.0
113958.45634586301, -144.9287109375, 0.0, -152.32713317871094, 0.0, 0.0, -27515.6015625, -27565.2890625, 0.0
113958.46034586302, -141.21832275390625, 0.0, -148.68380737304688, 0.0, 0.0, -27500.71484375, -27550.40234375, 0.0
113958.478427679, -140.16778564453125, 0.0, -147.5438690185547, 0.0, 0.0, -27487.59375, -27537.21484375, 0.0
113958.482427679, -139.87721252441406, 0.0, -147.07447814941406, 0.0, 0.0, -27472.23828125, -27521.79296875, 0.0
113958.486427679, -139.60899353027344, 0.0, -147.09683227539062, 0.0, 0.0, -27457.083984375, -27506.75, 0.0
113958.490427679, -139.36312866210938, 0.0, -146.7615509033203, 0.0, 0.0, -27441.080078125, -27490.767578125, 0.0
113958.494427679, -139.45252990722656, 0.0, -146.85096740722656, 0.0, 0.0, -27425.904296875, -27475.61328125, 0.0
113958.498427679, -139.5419464111328, 0.0, -146.78390502929688, 0.0, 0.0, -27411.75390625, -27461.3984375, 0.0
113958.502427679, -139.2960662841797, 0.0, -146.5380401611328, 0.0, 0.0, -27397.560546875, -27447.25, 0.0
113958.506427679, -139.5419464111328, 0.0, -146.82861328125, 0.0, 0.0, -27382.763671875, -27432.36328125, 0.0
113958.51042767901, -139.5642852783203, 0.0, -146.98507690429688, 0.0, 0.0, -27366.849609375, -27416.380859375, 0.0
113958.51442767901, -139.74310302734375, 0.0, -147.16387939453125, 0.0, 0.0, -27352.92578125, -27402.501953125, 0.0
113958.56596377, -140.3466033935547, 0.0, -147.677978515625, 0.0, 0.0, -27338.552734375, -27388.12890625, 0.0
113958.56996377, -141.1959686279297, 0.0, -148.326171875, 0.0, 0.0, -27323.77734375, -27373.2421875, 0.0
113958.57396377, -147.65562438964844, 0.0, -155.2328643798828, 0.0, 0.0, -27307.037109375, -27356.658203125, 0.0
113958.57796377, -223.2492218017578, 0.0, -230.71470642089844, 0.0, 0.0, -27292.53125, -27342.173828125, 0.0
113958.58196377, -313.7514343261719, 0.0, -321.1722106933594, 0.0, 0.0, -27279.833984375, -27329.43359375, 0.0
113958.58596377, -316.7242126464844, 0.0, -324.1449890136719, 0.0, 0.0, -27265.931640625, -27315.57421875, 0.0
113958.58996377, -312.9020690917969, 0.0, -320.3228454589844, 0.0, 0.0, -27249.548828125, -27299.326171875, 0.0
113958.59396377, -323.5862121582031, 0.0, -330.8281555175781, 0.0, 0.0, -27236.40625, -27286.16015625, 0.0
113958.59796377001, -325.7990417480469, 0.0, -333.17510986328125, 0.0, 0.0, -27225.630859375, -27275.296875, 0.0
113958.60196377001, -326.7825012207031, 0.0, -334.1585693359375, 0.0, 0.0, -27208.8671875, -27258.421875, 0.0
113958.64710215501, -330.3811340332031, 0.0, -337.9136657714844, 0.0, 0.0, -27192.953125, -27242.462890625, 0.0
113958.65110215501, -335.1643981933594, 0.0, -342.69696044921875, 0.0, 0.0, -27178.71484375, -27228.24609375, 0.0
113958.65510215501, -335.74554443359375, 0.0, -343.278076171875, 0.0, 0.0, -27164.3203125, -27213.740234375, 0.0
113958.65910215501, -333.085693359375, 0.0, -340.5735168457031, 0.0, 0.0, -27150.060546875, -27199.615234375, 0.0
113958.66310215501, -326.1566467285156, 0.0, -333.5774230957031, 0.0, 0.0, -27136.248046875, -27185.734375, 0.0
113958.66710215501, -253.9605255126953, 0.0, -261.2248229980469, 0.0, 0.0, -27123.619140625, -27173.060546875, 0.0
113958.67110215501, -191.6662139892578, 0.0, -199.1763916015625, 0.0, 0.0, -27106.05078125, -27155.58203125, 0.0
113958.67510215502, -191.08506774902344, 0.0, -198.57289123535156, 0.0, 0.0, -27089.197265625, -27138.728515625, 0.0
113958.67910215502, -259.97314453125, 0.0, -267.70684814453125, 0.0, 0.0, -27074.6015625, -27124.154296875, 0.0
113958.68310215502, -344.9991760253906, 0.0, -352.576416015625, 0.0, 0.0, -27062.666015625, -27112.173828125, 0.0
113958.75291702201, -381.27606201171875, 0.0, -388.6297912597656, 0.0, 0.0, -27050.7734375, -27100.3046875, 0.0
113958.75691702201, -370.770751953125, 0.0, -378.2585754394531, 0.0, 0.0, -27037.384765625, -27086.873046875, 0.0
113958.76091702201, -194.81781005859375, 0.0, -202.4397430419922, 0.0, 0.0, -27016.486328125, -27066.017578125, 0.0
113958.76491702201, -150.7401580810547, 0.0, -157.9374237060547, 0.0, 0.0, -27000.169921875, -27049.72265625, 0.0
113958.76891702201, -140.63717651367188, 0.0, -147.74502563476562, 0.0, 0.0, -26986.669921875, -27036.357421875, 0.0
113958.77291702201, -130.4000701904297, 0.0, -137.7314453125, 0.0, 0.0, -26971.4921875, -27021.068359375, 0.0
113958.77691702201, -126.73439025878906, 0.0, -133.9987030029297, 0.0, 0.0, -26956.78515625, -27006.25, 0.0
113958.78091702201, -126.93555450439453, 0.0, -133.86459350585938, 0.0, 0.0, -26943.9765625, -26993.44140625, 0.0
113958.78491702201, -127.337890625, 0.0, -134.4233856201172, 0.0, 0.0, -26932.287109375, -26981.70703125, 0.0
113958.78891702202, -128.45547485351562, 0.0, -135.45156860351562, 0.0, 0.0, -26918.541015625, -26968.095703125, 0.0
113958.82750783401, -138.8713836669922, 0.0, -146.00160217285156, 0.0, 0.0, -26903.38671875, -26952.896484375, 0.0
113958.83150783401, -946.8422241210938, 0.0, -953.7042236328125, 0.0, 0.0, -26905.375, -26954.83984375, 0.0
113958.83550783401, -3260.60546875, 0.0, -3268.07080078125, 0.0, 0.0, -26943.552734375, -26993.12890625, 0.0
113958.83950783401, -2526.305908203125, 0.0, -2534.218505859375, 0.0, 0.0, -26914.830078125, -26964.40625, 0.0
113958.84350783401, -1328.2747802734375, 0.0, -1336.25439453125, 0.0, 0.0, -26873.189453125, -26922.720703125, 0.0
113958.84750783401, -2761.625, 0.0, -2768.6435546875, 0.0, 0.0, -26890.064453125, -26939.595703125, 0.0
113958.85150783401, -5048.2978515625, 0.0, -5055.71875, 0.0, 0.0, -26927.794921875, -26977.259765625, 0.0
113958.85550783401, -5342.22314453125, 0.0, -5350.02392578125, 0.0, 0.0, -26920.26171875, -26969.81640625, 0.0
113958.85950783401, -5360.5517578125, 0.0, -5368.3974609375, 0.0, 0.0, -26905.443359375, -26954.9296875, 0.0
113958.86350783402, -5383.126953125, 0.0, -5390.7265625, 0.0, 0.0, -26891.517578125, -26940.958984375, 0.0
113958.88294681601, -5431.38427734375, 0.0, -5438.82763671875, 0.0, 0.0, -26877.79296875, -26927.28125, 0.0
113958.88694681601, -5462.25244140625, 0.0, -5469.82958984375, 0.0, 0.0, -26866.818359375, -26916.3515625, 0.0
113958.89094681601, -5477.1162109375, 0.0, -5484.35791015625, 0.0, 0.0, -26853.408203125, -26902.91796875, 0.0
113958.89494681601, -5482.83837890625, 0.0, -5490.5498046875, 0.0, 0.0, -26837.560546875, -26887.13671875, 0.0
113958.89894681601, -5492.13671875, 0.0, -5499.82568359375, 0.0, 0.0, -26824.150390625, -26873.748046875, 0.0
113958.90294681602, -5512.0517578125, 0.0, -5519.36083984375, 0.0, 0.0, -26810.08984375, -26859.62109375, 0.0
113958.90694681602, -5531.22998046875, 0.0, -5539.1201171875, 0.0, 0.0, -26795.13671875, -26844.623046875, 0.0
113958.91094681602, -5544.439453125, 0.0, -5552.53076171875, 0.0, 0.0, -26782.77734375, -26832.28515625, 0.0
113958.91494681602, -5552.44140625, 0.0, -5560.37646484375, 0.0, 0.0, -26768.986328125, -26818.494140625, 0.0
113958.91894681602, -5556.46484375, 0.0, -5564.4892578125, 0.0, 0.0, -26753.0703125, -26802.53515625, 0.0
113958.97877144301, -5559.83984375, 0.0, -5568.04296875, 0.0, 0.0, -26739.951171875, -26789.392578125, 0.0
113958.98277144301, -5563.95263671875, 0.0, -5571.99951171875, 0.0, 0.0, -26726.13671875, -26775.51171875, 0.0
113958.98677144301, -5571.2841796875, 0.0, -5578.99560546875, 0.0, 0.0, -26710.490234375, -26759.822265625, 0.0
113958.99077144302, -5577.34130859375, 0.0, -5584.8291015625, 0.0, 0.0, -26696.6328125, -26746.0078125, 0.0
113958.99477144302, -5567.37255859375, 0.0, -5574.8154296875, 0.0, 0.0, -26680.65234375, -26730.048828125, 0.0
113958.99877144302, -5557.96240234375, 0.0, -5565.53955078125, 0.0, 0.0, -26666.546875, -26716.01171875, 0.0
113959.00277144302, -5554.40869140625, 0.0, -5562.11962890625, 0.0, 0.0, -26651.259765625, -26700.767578125, 0.0
113959.00677144302, -5560.8681640625, 0.0, -5568.57958984375, 0.0, 0.0, -26635.61328125, -26684.98828125, 0.0
113959.01077144302, -5565.33837890625, 0.0, -5573.0498046875, 0.0, 0.0, -26623.51953125, -26672.91796875, 0.0
113959.01477144302, -5566.4560546875, 0.0, -5574.3017578125, 0.0, 0.0, -26608.56640625, -26657.94140625, 0.0
113959.03267890001, -5578.302734375, 0.0, -5585.90234375, 0.0, 0.0, -26591.490234375, -26640.8203125, 0.0
113959.03667890001, -5589.880859375, 0.0, -5597.59228515625, 0.0, 0.0, -26578.146484375, -26627.431640625, 0.0
113959.04067890001, -5591.17724609375, 0.0, -5599.0224609375, 0.0, 0.0, -26565.181640625, -26614.423828125, 0.0
113959.04467890001, -5596.8095703125, 0.0, -5604.677734375, 0.0, 0.0, -26549.916015625, -26599.1796875, 0.0
113959.04867890001, -5604.07421875, 0.0, -5612.232421875, 0.0, 0.0, -26535.56640625, -26584.806640625, 0.0
113959.05267890001, -5614.04296875, 0.0, -5622.17919921875, 0.0, 0.0, -26520.703125, -26569.921875, 0.0
113959.05667890001, -5622.73779296875, 0.0, -5630.51611328125, 0.0, 0.0, -26506.330078125, -26555.615234375, 0.0
113959.06067890002, -5628.70556640625, 0.0, -5636.640625, 0.0, 0.0, -26491.7578125, -26541.064453125, 0.0
113959.06467890002, -5631.94677734375, 0.0, -5639.92626953125, 0.0, 0.0, -26475.8203125, -26525.171875, 0.0
113959.06867890002, -5626.76123046875, 0.0, -5634.47265625, 0.0, 0.0, -26460.509765625, -26509.81640625, 0.0
113959.10640683801, -5609.32666015625, 0.0, -5616.7919921875, 0.0, 0.0, -26447.34375, -26496.583984375, 0.0
113959.11040683801, -5604.2529296875, 0.0, -5612.2099609375, 0.0, 0.0, -26433.462890625, -26482.7265625, 0.0
113959.11440683801, -5620.6591796875, 0.0, -5628.4599609375, 0.0, 0.0, -26417.861328125, -26467.236328125, 0.0
113959.11840683801, -5624.6826171875, 0.0, -5632.4384765625, 0.0, 0.0, -26401.970703125, -26451.30078125, 0.0
113959.12240683801, -5621.44140625, 0.0, -5629.15283203125, 0.0, 0.0, -26389.140625, -26438.470703125, 0.0
113959.12640683801, -5617.41796875, 0.0, -5625.21875, 0.0, 0.0, -26374.8125, -26424.09765625, 0.0
113959.13040683801, -5625.4423828125, 0.0, -5633.220703125, 0.0, 0.0, -26358.451171875, -26407.71484375, 0.0
113959.13440683801, -5636.30517578125, 0.0, -5643.79296875, 0.0, 0.0, -26343.140625, -26392.291015625, 0.0
113959.13840683801, -5653.2255859375, 0.0, -5661.048828125, 0.0, 0.0, -26330.802734375, -26379.953125, 0.0
113959.14240683801, -5663.52978515625, 0.0, -5671.4423828125, 0.0, 0.0, -26317.97265625, -26367.279296875, 0.0
113959.17985599501, -5682.595703125, 0.0, -5690.5751953125, 0.0, 0.0, -26303.7109375, -26352.953125, 0.0
113959.18385599501, -5702.1982421875, 0.0, -5710.3564453125, 0.0, 0.0, -26289.02734375, -26338.15625, 0.0
113959.18785599501, -5707.87548828125, 0.0, -5716.10107421875, 0.0, 0.0, -26274.54296875, -26323.783203125, 0.0
113959.19185599501, -5713.46337890625, 0.0, -5721.33154296875, 0.0, 0.0, -26257.623046875, -26306.86328125, 0.0
113959.19585599501, -5728.0146484375, 0.0, -5735.88232421875, 0.0, 0.0, -26241.1484375, -26290.546875, 0.0
113959.19985599502, -5734.47412109375, 0.0, -5742.25244140625, 0.0, 0.0, -26227.42578125, -26276.6875, 0.0
113959.20385599502, -5732.1943359375, 0.0, -5740.017578125, 0.0, 0.0, -26214.796875, -26263.970703125, 0.0
113959.20785599502, -5736.30712890625, 0.0, -5744.0185546875, 0.0, 0.0, -26200.111328125, -26249.240234375, 0.0
113959.21185599502, -5740.732421875, 0.0, -5748.46630859375, 0.0, 0.0, -26183.66015625, -26232.833984375, 0.0
113959.21585599502, -5746.9462890625, 0.0, -5754.70263671875, 0.0, 0.0, -26167.25390625, -26216.49609375, 0.0
113959.257622136, -5754.412109375, 0.0, -5762.25732421875, 0.0, 0.0, -26153.57421875, -26202.81640625, 0.0
113959.26162213601, -5759.50830078125, 0.0, -5767.755859375, 0.0, 0.0, -26140.677734375, -26189.94140625, 0.0
113959.26562213601, -5774.193359375, 0.0, -5782.41845703125, 0.0, 0.0, -26126.26171875, -26175.63671875, 0.0
113959.26962213601, -5767.3759765625, 0.0, -5775.400390625, 0.0, 0.0, -26107.888671875, -26157.21875, 0.0
113959.27362213601, -5774.998046875, 0.0, -5783.0, 0.0, 0.0, -26094.4765625, -26143.76171875, 0.0
113959.27762213601, -5785.123046875, 0.0, -5793.169921875, 0.0, 0.0, -26083.2109375, -26132.453125, 0.0
113959.28162213601, -5785.97265625, 0.0, -5793.9970703125, 0.0, 0.0, -26065.978515625, -26115.21875, 0.0
113959.28562213601, -5833.82763671875, 0.0, -5841.3603515625, 0.0, 0.0, -26049.638671875, -26098.880859375, 0.0
113959.28962213601, -6036.33447265625, 0.0, -6044.828125, 0.0, 0.0, -26037.703125, -26086.921875, 0.0
113959.29362213601, -6126.3671875, 0.0, -6135.3974609375, 0.0, 0.0, -26026.953125, -26076.1484375, 0.0
113959.307884879, -6056.71923828125, 0.0, -6065.52587890625, 0.0, 0.0, -26010.345703125, -26059.51953125, 0.0
113959.311884879, -4472.3828125, 0.0, -4481.27880859375, 0.0, 0.0, -25960.232421875, -26009.451171875, 0.0
113959.315884879, -1798.667236328125, 0.0, -1807.071533203125, 0.0, 0.0, -25886.091796875, -25935.220703125, 0.0
113959.319884879, -616.59521484375, 0.0, -625.2677001953125, 0.0, 0.0, -25845.076171875, -25894.18359375, 0.0
113959.323884879, -658.7506103515625, 0.0, -667.020751953125, 0.0, 0.0, -25827.3515625, -25876.5703125, 0.0
113959.327884879, -498.6003723144531, 0.0, -506.401123046875, 0.0, 0.0, -25804.6875, -25853.81640625, 0.0
113959.33188487901, -527.0988159179688, 0.0, -534.6760864257812, 0.0, 0.0, -25789.21875, -25838.37109375, 0.0
113959.33588487901, -832.8483276367188, 0.0, -840.58203125, 0.0, 0.0, -25778.69140625, -25827.931640625, 0.0
113959.33988487901, -306.800048828125, 0.0, -314.6007995605469, 0.0, 0.0, -25751.98046875, -25801.22265625, 0.0
113959.34388487901, -302.6426086425781, 0.0, -310.2198486328125, 0.0, 0.0, -25738.435546875, -25787.677734375, 0.0
113959.38886333701, -515.1182861328125, 0.0, -522.4049682617188, 0.0, 0.0, -25724.064453125, -25773.126953125, 0.0
113959.39286333701, -380.44903564453125, 0.0, -387.9368896484375, 0.0, 0.0, -25705.82421875, -25754.8203125, 0.0
113959.39686333701, -289.5892028808594, 0.0, -296.6970520019531, 0.0, 0.0, -25688.078125, -25737.1171875, 0.0
113959.40086333701, -173.36012268066406, 0.0, -180.3115234375, 0.0, 0.0, -25669.994140625, -25719.056640625, 0.0
113959.40486333701, -155.83636474609375, 0.0, -163.21243286132812, 0.0, 0.0, -25651.107421875, -25700.1484375, 0.0
113959.40886333701, -266.1869201660156, 0.0, -273.63006591796875, 0.0, 0.0, -25637.98828125, -25687.1171875, 0.0
113959.41286333701, -232.81576538085938, 0.0, -240.39300537109375, 0.0, 0.0, -25623.705078125, -25672.85546875, 0.0
113959.41686333701, -153.93646240234375, 0.0, -161.4466552734375, 0.0, 0.0, -25605.130859375, -25654.21484375, 0.0
113959.42086333701, -128.34371948242188, 0.0, -135.96566772460938, 0.0, 0.0, -25588.76953125, -25637.787109375, 0.0
113959.42486333702, -129.3271942138672, 0.0, -136.882080078125, 0.0, 0.0, -25575.849609375, -25624.798828125, 0.0
113959.474833439, -133.30580139160156, 0.0, -140.681884765625, 0.0, 0.0, -25560.13671875, -25609.154296875, 0.0
113959.478833439, -133.59637451171875, 0.0, -141.08421325683594, 0.0, 0.0, -25543.841796875, -25592.79296875, 0.0
113959.482833439, -128.56723022460938, 0.0, -135.96566772460938, 0.0, 0.0, -25527.4140625, -25576.251953125, 0.0
113959.486833439, -127.04731750488281, 0.0, -134.8257293701172, 0.0, 0.0, -25511.521484375, -25560.44921875, 0.0
113959.490833439, -127.74021911621094, 0.0, -135.42921447753906, 0.0, 0.0, -25498.2890625, -25547.283203125, 0.0
113959.494833439, -128.20960998535156, 0.0, -135.63038635253906, 0.0, 0.0, -25482.150390625, -25531.19140625, 0.0
113959.49883343901, -131.47296142578125, 0.0, -138.84902954101562, 0.0, 0.0, -25464.248046875, -25513.33203125, 0.0
113959.50283343901, -136.39035034179688, 0.0, -144.079345703125, 0.0, 0.0, -25448.779296875, -25497.908203125, 0.0
113959.50683343901, -134.28927612304688, 0.0, -141.68771362304688, 0.0, 0.0, -25435.369140625, -25484.408203125, 0.0
113959.51083343901, -132.54583740234375, 0.0, -139.89956665039062, 0.0, 0.0, -25422.271484375, -25471.400390625, 0.0
113959.54102475401, -132.0093994140625, 0.0, -139.27371215820312, 0.0, 0.0, -25404.634765625, -25453.630859375, 0.0
113959.54502475401, -131.74118041992188, 0.0, -139.18431091308594, 0.0, 0.0, -25388.02734375, -25436.93359375, 0.0
113959.54902475401, -131.24945068359375, 0.0, -138.96080017089844, 0.0, 0.0, -25374.34765625, -25423.3203125, 0.0
113959.55302475402, -131.1600341796875, 0.0, -138.46905517578125, 0.0, 0.0, -25361.318359375, -25410.291015625, 0.0
113959.55702475402, -131.09298706054688, 0.0, -138.08908081054688, 0.0, 0.0, -25344.46484375, -25393.548828125, 0.0
113959.56102475402, -130.78005981445312, 0.0, -137.82086181640625, 0.0, 0.0, -25329.533203125, -25378.595703125, 0.0
113959.56502475402, -130.4000701904297, 0.0, -137.32911682128906, 0.0, 0.0, -25313.640625, -25362.658203125, 0.0
113959.56902475402, -129.7518768310547, 0.0, -136.85972595214844, 0.0, 0.0, -25299.693359375, -25348.64453125, 0.0
113959.57302475402, -128.65664672851562, 0.0, -135.71978759765625, 0.0, 0.0, -25285.767578125, -25334.65234375, 0.0
113959.57702475402, -128.0531463623047, 0.0, -135.2727508544922, 0.0, 0.0, -25268.4453125, -25317.396484375, 0.0
113959.61136335401, -127.31553649902344, 0.0, -134.93748474121094, 0.0, 0.0, -25253.044921875, -25302.0859375, 0.0
113959.61536335401, -126.86849975585938, 0.0, -134.8927764892578, 0.0, 0.0, -25239.43359375, -25288.451171875, 0.0
113959.61936335401, -126.55558013916016, 0.0, -134.4680938720703, 0.0, 0.0, -25223.921875, -25272.8046875, 0.0
113959.62336335401, -125.14741516113281, 0.0, -132.52349853515625, 0.0, 0.0, -25207.716796875, -25256.599609375, 0.0
113959.62736335401, -124.43215942382812, 0.0, -131.62942504882812, 0.0, 0.0, -25195.1328125, -25244.015625, 0.0
113959.63136335401, -124.18629455566406, 0.0, -131.40589904785156, 0.0, 0.0, -25180.826171875, -25229.666015625, 0.0
113959.63536335401, -123.82866668701172, 0.0, -131.2270965576172, 0.0, 0.0, -25163.50390625, -25212.455078125, 0.0
113959.63936335401, -123.29222106933594, 0.0, -130.46713256835938, 0.0, 0.0, -25150.31640625, -25199.201171875, 0.0
113959.64336335401, -123.29222106933594, 0.0, -130.55653381347656, 0.0, 0.0, -25135.185546875, -25184.134765625, 0.0
113959.64736335402, -123.0687026977539, 0.0, -130.6012420654297, 0.0, 0.0, -25120.677734375, -25169.5390625, 0.0
113959.67890280401, -122.77812957763672, 0.0, -129.9753875732422, 0.0, 0.0, -25104.0703125, -25152.955078125, 0.0
113959.68290280401, -122.97930145263672, 0.0, -129.99774169921875, 0.0, 0.0, -25088.783203125, -25137.732421875, 0.0
113959.68690280401, -124.00747680664062, 0.0, -130.89181518554688, 0.0, 0.0, -25072.599609375, -25121.439453125, 0.0
113959.69090280401, -123.64984893798828, 0.0, -131.0259246826172, 0.0, 0.0, -25060.6640625, -25109.435546875, 0.0
113959.69490280401, -123.51573944091797, 0.0, -130.9365234375, 0.0, 0.0, -25047.990234375, -25096.716796875, 0.0
113959.69890280401, -123.6945571899414, 0.0, -130.8024139404297, 0.0, 0.0, -25030.130859375, -25078.8359375, 0.0
113959.70290280401, -124.1192398071289, 0.0, -131.18238830566406, 0.0, 0.0, -25014.1953125, -25062.876953125, 0.0
113959.70690280401, -125.14741516113281, 0.0, -132.0764617919922, 0.0, 0.0, -24997.453125, -25046.1796875, 0.0
113959.71090280401, -125.30387878417969, 0.0, -132.36703491210938, 0.0, 0.0, -24983.103515625, -25031.830078125, 0.0
113959.71490280401, -125.75091552734375, 0.0, -132.65760803222656, 0.0, 0.0, -24968.171875, -25016.8984375, 0.0
113959.75289829001, -128.7013397216797, 0.0, -135.6080322265625, 0.0, 0.0, -24953.0859375, -25001.90234375, 0.0
113959.75689829001, -137.083251953125, 0.0, -144.3699188232422, 0.0, 0.0, -24940.6796875, -24989.361328125, 0.0
113959.76089829001, -464.78216552734375, 0.0, -471.55474853515625, 0.0, 0.0, -24933.728515625, -24982.43359375, 0.0
113959.76489829001, -2855.658935546875, 0.0, -2862.252685546875, 0.0, 0.0, -24971.615234375, -25020.38671875, 0.0
113959.76889829001, -4639.37255859375, 0.0, -4646.5029296875, 0.0, 0.0, -24994.5703125, -25043.275390625, 0.0
113959.77289829002, -4966.64697265625, 0.0, -4973.7548828125, 0.0, 0.0, -24988.087890625, -25036.79296875, 0.0
113959.77689829002, -5012.982421875, 0.0, -5020.3134765625, 0.0, 0.0, -24976.419921875, -25025.169921875, 0.0
113959.78089829002, -5053.59521484375, 0.0, -5061.150390625, 0.0, 0.0, -24963.859375, -25012.65234375, 0.0
113959.78489829002, -5116.33642578125, 0.0, -5124.0703125, 0.0, 0.0, -24949.59765625, -24998.34765625, 0.0
113959.78889829002, -5244.2333984375, 0.0, -5251.5869140625, 0.0, 0.0, -24936.208984375, -24984.935546875, 0.0
113959.85469719501, -5288.06494140625, 0.0, -5295.73193359375, 0.0, 0.0, -24924.98828125, -24973.626953125, 0.0
113959.85869719501, -5367.771484375, 0.0, -5375.3935546875, 0.0, 0.0, -24910.37109375, -24959.0078125, 0.0
113959.86269719501, -5532.0791015625, 0.0, -5539.41064453125, 0.0, 0.0, -24897.7421875, -24946.447265625, 0.0
113959.86669719502, -5590.439453125, 0.0, -5597.74853515625, 0.0, 0.0, -24887.19140625, -24935.986328125, 0.0
113959.87069719502, -5650.11865234375, 0.0, -5657.8076171875, 0.0, 0.0, -24874.765625, -24923.513671875, 0.0
113959.87469719502, -5650.0068359375, 0.0, -5657.76318359375, 0.0, 0.0, -24861.30859375, -24909.990234375, 0.0
113959.87869719502, -5644.7763671875, 0.0, -5652.51025390625, 0.0, 0.0, -24846.9375, -24895.685546875, 0.0
113959.88269719502, -5638.4287109375, 0.0, -5645.6484375, 0.0, 0.0, -24833.146484375, -24881.89453125, 0.0
113959.88669719502, -5665.228515625, 0.0, -5672.29150390625, 0.0, 0.0, -24821.857421875, -24870.541015625, 0.0
113959.89069719502, -5629.77880859375, 0.0, -5636.95361328125, 0.0, 0.0, -24807.798828125, -24856.525390625, 0.0
113959.94874518001, -5573.072265625, 0.0, -5580.38134765625, 0.0, 0.0, -24792.64453125, -24841.392578125, 0.0
113959.95274518001, -5592.8984375, 0.0, -5600.408203125, 0.0, 0.0, -24776.86328125, -24825.634765625, 0.0
113959.95674518001, -5610.421875, 0.0, -5617.90966796875, 0.0, 0.0, -24764.32421875, -24813.119140625, 0.0
113959.96074518001, -5617.0380859375, 0.0, -5624.4140625, 0.0, 0.0, -24749.751953125, -24798.455078125, 0.0
113959.96474518001, -5657.62890625, 0.0, -5665.0498046875, 0.0, 0.0, -24735.111328125, -24783.771484375, 0.0
113959.96874518001, -5724.7734375, 0.0, -5732.3505859375, 0.0, 0.0, -24722.52734375, -24771.1875, 0.0
113959.97274518001, -5782.7763671875, 0.0, -5790.24169921875, 0.0, 0.0, -24710.27734375, -24758.9375, 0.0
113959.97674518001, -5823.0986328125, 0.0, -5830.38525390625, 0.0, 0.0, -24698.095703125, -24746.755859375, 0.0
113959.98074518002, -5827.63623046875, 0.0, -5835.39208984375, 0.0, 0.0, -24684.060546875, -24732.697265625, 0.0
113959.98474518002, -5836.755859375, 0.0, -5844.35546875, 0.0, 0.0, -24667.318359375, -24716.0, 0.0
113960.02398398201, -5856.85009765625, 0.0, -5864.29296875, 0.0, 0.0, -24654.689453125, -24703.28125, 0.0
113960.02798398201, -5880.6767578125, 0.0, -5888.3212890625, 0.0, 0.0, -24643.55859375, -24692.10546875, 0.0
113960.03198398201, -5898.42431640625, 0.0, -5906.2470703125, 0.0, 0.0, -24628.3359375, -24676.884765625, 0.0
113960.03598398202, -5913.064453125, 0.0, -5920.865234375, 0.0, 0.0, -24611.1484375, -24659.65234375, 0.0
113960.03998398202, -5937.42822265625, 0.0, -5945.13916015625, 0.0, 0.0, -24598.05078125, -24646.75390625, 0.0
113960.04398398202, -5967.75927734375, 0.0, -5975.068359375, 0.0, 0.0, -24586.515625, -24635.17578125, 0.0
113960.04798398202, -6009.93701171875, 0.0, -6017.2236328125, 0.0, 0.0, -24573.396484375, -24621.943359375, 0.0
113960.05198398202, -6055.0654296875, 0.0, -6062.5751953125, 0.0, 0.0, -24558.30859375, -24606.923828125, 0.0
113960.05598398202, -6088.369140625, 0.0, -6095.92431640625, 0.0, 0.0, -24542.595703125, -24591.2109375, 0.0
113960.05998398202, -6158.5537109375, 0.0, -6165.7734375, 0.0, 0.0, -24529.943359375, -24578.513671875, 0.0
113960.09144832, -6298.85546875, 0.0, -6306.36572265625, 0.0, 0.0, -24518.34375, -24566.869140625, 0.0
113960.09544832, -6336.96533203125, 0.0, -6344.8330078125, 0.0, 0.0, -24503.501953125, -24551.982421875, 0.0
113960.09944832, -6342.12890625, 0.0, -6350.041015625, 0.0, 0.0, -24488.50390625, -24536.896484375, 0.0
113960.10344832, -6353.1259765625, 0.0, -6361.12744140625, 0.0, 0.0, -24475.80859375, -24524.244140625, 0.0
113960.10744832, -6387.36865234375, 0.0, -6395.2587890625, 0.0, 0.0, -24463.73828125, -24512.197265625, 0.0
113960.11144832, -6432.54150390625, 0.0, -6440.38671875, 0.0, 0.0, -24451.2890625, -24499.748046875, 0.0
113960.11544832001, -6451.74169921875, 0.0, -6459.408203125, 0.0, 0.0, -24434.904296875, -24483.296875, 0.0
113960.11944832001, -6438.4423828125, 0.0, -6446.01953125, 0.0, 0.0, -24419.4375, -24467.783203125, 0.0
113960.12344832001, -6430.865234375, 0.0, -6438.93408203125, 0.0, 0.0, -24406.673828125, -24455.087890625, 0.0
113960.12744832001, -6414.34716796875, 0.0, -6422.4609375, 0.0, 0.0, -24390.3125, -24438.7265625, 0.0
113960.149201608, -6414.32470703125, 0.0, -6422.17041015625, 0.0, 0.0, -24373.83984375, -24422.275390625, 0.0
113960.153201608, -6405.16064453125, 0.0, -6412.8720703125, 0.0, 0.0, -24358.953125, -24407.255859375, 0.0
113960.157201608, -6403.685546875, 0.0, -6411.6201171875, 0.0, 0.0, -24344.626953125, -24392.8828125, 0.0
113960.161201608, -6356.43359375, 0.0, -6364.12255859375, 0.0, 0.0, -24329.13671875, -24377.416015625, 0.0
113960.165201608, -6246.21728515625, 0.0, -6253.83935546875, 0.0, 0.0, -24311.6796875, -24360.025390625, 0.0
113960.169201608, -6204.9560546875, 0.0, -6212.46630859375, 0.0, 0.0, -24295.765625, -24344.044921875, 0.0
113960.173201608, -6202.07275390625, 0.0, -6209.9404296875, 0.0, 0.0, -24282.01953125, -24330.298828125, 0.0
113960.177201608, -6147.44482421875, 0.0, -6155.201171875, 0.0, 0.0, -24266.283203125, -24314.541015625, 0.0
113960.18120160801, -6075.2041015625, 0.0, -6083.11669921875, 0.0, 0.0, -24247.685546875, -24295.98828125, 0.0
113960.18520160801, -6009.2666015625, 0.0, -6017.13427734375, 0.0, 0.0, -24230.677734375, -24278.912109375, 0.0
113960.24242222801, -5953.74462890625, 0.0, -5961.61279296875, 0.0, 0.0, -24216.662109375, -24264.919921875, 0.0
113960.24642222801, -5969.52490234375, 0.0, -5977.28125, 0.0, 0.0, -24200.412109375, -24248.625, 0.0
113960.25042222801, -5995.251953125, 0.0, -6002.8291015625, 0.0, 0.0, -24183.9609375, -24232.107421875, 0.0
113960.25442222801, -6093.15283203125, 0.0, -6101.26611328125, 0.0, 0.0, -24169.767578125, -24217.98046875, 0.0
113960.25842222801, -5881.3251953125, 0.0, -5889.77392578125, 0.0, 0.0, -24148.130859375, -24196.322265625, 0.0
113960.26242222801, -5695.71630859375, 0.0, -5704.1650390625, 0.0, 0.0, -24127.501953125, -24175.6015625, 0.0
113960.26642222801, -5189.94091796875, 0.0, -5198.39013671875, 0.0, 0.0, -24098.01953125, -24146.12109375, 0.0
113960.27042222802, -5217.1875, 0.0, -5225.54736328125, 0.0, 0.0, -24081.166015625, -24129.3125, 0.0
113960.27442222802, -5518.1318359375, 0.0, -5526.06640625, 0.0, 0.0, -24073.1640625, -24121.353515625, 0.0
113960.27842222802, -5596.0498046875, 0.0, -5604.31982421875, 0.0, 0.0, -24058.970703125, -24107.228515625, 0.0
113960.30961479801, -5280.64453125, 0.0, -5289.00390625, 0.0, 0.0, -24032.013671875, -24080.138671875, 0.0
113960.31361479801, -4809.40234375, 0.0, -4817.89599609375, 0.0, 0.0, -24003.583984375, -24051.638671875, 0.0
113960.31761479801, -3352.292236328125, 0.0, -3361.076416015625, 0.0, 0.0, -23955.37109375, -24003.3828125, 0.0
113960.32161479801, -1707.8968505859375, 0.0, -1716.25634765625, 0.0, 0.0, -23903.42578125, -23951.392578125, 0.0
113960.32561479801, -619.9032592773438, 0.0, -627.838134765625, 0.0, 0.0, -23865.314453125, -23913.259765625, 0.0
113960.32961479801, -208.9888153076172, 0.0, -216.43194580078125, 0.0, 0.0, -23838.248046875, -23886.169921875, 0.0
113960.33361479802, -134.1998748779297, 0.0, -141.53125, 0.0, 0.0, -23818.82421875, -23866.8359375, 0.0
113960.33761479802, -127.65081024169922, 0.0, -135.2504119873047, 0.0, 0.0, -23802.9765625, -23851.033203125, 0.0
113960.34161479802, -128.67898559570312, 0.0, -136.34564208984375, 0.0, 0.0, -23787.552734375, -23835.54296875, 0.0
113960.34561479802, -139.60899353027344, 0.0, -147.32034301757812, 0.0, 0.0, -23773.11328125, -23821.103515625, 0.0
