110280.69549779301, 0.4453955292701721, -1.4650087480064632e-25, -1.4650087480064632e-25, 0.4195718765258789, -1.4650087480064632e-25, -1.4650087480064632e-25, -1.4650087480064632e-25, -1.4650087480064632e-25
110280.70749779302, 0.8792406320571899, 1.4650087480064632e-25, 1.4650087480064632e-25, 0.4742606282234192, 1.4650087480064632e-25, 1.4650087480064632e-25, 1.4650087480064632e-25, 1.4650087480064632e-25
110280.71149779302, 1.9980123043060303, -2.6652681341307356e-25, -2.6652681341307356e-25, 1.8591959476470947, -2.6652681341307356e-25, -2.6652681341307356e-25, -2.6652681341307356e-25, -2.6652681341307356e-25
110280.72749779302, 1.2340108156204224, 4.1302767588776824e-25, 4.1302767588776824e-25, 1.217710256576538, 4.1302767588776824e-25, 4.1302767588776824e-25, 4.1302767588776824e-25, 4.1302767588776824e-25
110280.79571668101, 1.6787667274475098, -2.6652681341307356e-25, -2.6652681341307356e-25, 2.2090282440185547, -2.6652681341307356e-25, -2.6652681341307356e-25, -2.6652681341307356e-25, -2.6652681341307356e-25
110280.81171668101, 1.8012782335281372, 4.1302767588776824e-25, 4.1302767588776824e-25, 1.7820701599121094, 4.1302767588776824e-25, 4.1302767588776824e-25, 4.1302767588776824e-25, 4.1302767588776824e-25
110280.87382436401, 0.830862820148468, -1.4650087480064632e-25, -1.4650087480064632e-25, 1.0469051599502563, -1.4650087480064632e-25, -1.4650087480064632e-25, -1.4650087480064632e-25, -1.4650087480064632e-25
110280.87782436401, 2.371471643447876, 2.6652681341307356e-25, 2.6652681341307356e-25, 2.6006710529327393, 2.6652681341307356e-25, 2.6652681341307356e-25, 2.6652681341307356e-25, 2.6652681341307356e-25
110280.88182436401, 0.383386492729187, 4.1302767588776824e-25, 4.1302767588776824e-25, 0.17910638451576233, 4.1302767588776824e-25, 4.1302767588776824e-25, 4.1302767588776824e-25, 4.1302767588776824e-25
110280.89382436402, 0.875016987323761, -4.1302767588776824e-25, -4.1302767588776824e-25, 1.0188735723495483, -4.1302767588776824e-25, -4.1302767588776824e-25, -4.1302767588776824e-25, -4.1302767588776824e-25
110280.89782436402, 0.3264131247997284, -1.4650087480064632e-25, -1.4650087480064632e-25, 0.4378439784049988, -1.4650087480064632e-25, -1.4650087480064632e-25, -1.4650087480064632e-25, -1.4650087480064632e-25
110280.90582436402, 0.9524869322776794, 4.1302767588776824e-25, 4.1302767588776824e-25, 0.7837755084037781, 4.1302767588776824e-25, 4.1302767588776824e-25, 4.1302767588776824e-25, 4.1302767588776824e-25
110280.96276533401, 2.1356499195098877, -4.1302767588776824e-25, -4.1302767588776824e-25, 1.872934341430664, -4.1302767588776824e-25, -4.1302767588776824e-25, -4.1302767588776824e-25, -4.1302767588776824e-25
110280.97876533402, 0.6584134101867676, 1.4650087480064632e-25, 1.4650087480064632e-25, 0.82170569896698, 1.4650087480064632e-25, 1.4650087480064632e-25, 1.4650087480064632e-25, 1.4650087480064632e-25
110280.99476533402, 2.5875186920166016, 2.6652681341307356e-25, 2.6652681341307356e-25, 2.4940714836120605, 2.6652681341307356e-25, 2.6652681341307356e-25, 2.6652681341307356e-25, 2.6652681341307356e-25
110280.99876533402, 1.18511164188385, 4.1302767588776824e-25, 4.1302767588776824e-25, 0.8852362632751465, 4.1302767588776824e-25, 4.1302767588776824e-25, 4.1302767588776824e-25, 4.1302767588776824e-25
110281.08040858302, 4.414846897125244, -2.6652681341307356e-25, -2.6652681341307356e-25, 5.004140853881836, -2.6652681341307356e-25, -2.6652681341307356e-25, -2.6652681341307356e-25, -2.6652681341307356e-25
110281.08440858302, 3.9604010581970215, -4.1302767588776824e-25, -4.1302767588776824e-25, 4.053491592407227, -4.1302767588776824e-25, -4.1302767588776824e-25, -4.1302767588776824e-25, -4.1302767588776824e-25
110281.08840858302, 0.9963542819023132, -1.4650087480064632e-25, -1.4650087480064632e-25, 1.0447763204574585, -1.4650087480064632e-25, -1.4650087480064632e-25, -1.4650087480064632e-25, -1.4650087480064632e-25
110281.09240858302, 0.9132417440414429, 2.6652681341307356e-25, 2.6652681341307356e-25, 1.4831435680389404, 2.6652681341307356e-25, 2.6652681341307356e-25, 2.6652681341307356e-25, 2.6652681341307356e-25
110281.09640858302, 2.413038730621338, 4.1302767588776824e-25, 4.1302767588776824e-25, 3.444899797439575, 4.1302767588776824e-25, 4.1302767588776824e-25, 4.1302767588776824e-25, 4.1302767588776824e-25
110281.15929758301, 2.0064055919647217, -4.1302767588776824e-25, -4.1302767588776824e-25, 2.1287853717803955, -4.1302767588776824e-25, -4.1302767588776824e-25, -4.1302767588776824e-25, -4.1302767588776824e-25
110281.16329758301, 1.100067138671875, -1.4650087480064632e-25, -1.4650087480064632e-25, 1.1985371112823486, -1.4650087480064632e-25, -1.4650087480064632e-25, -1.4650087480064632e-25, -1.4650087480064632e-25
110281.251889673, 6.590024948120117, -4.1302767588776824e-25, -4.1302767588776824e-25, 7.02664041519165, -4.1302767588776824e-25, -4.1302767588776824e-25, -4.1302767588776824e-25, -4.1302767588776824e-25
110281.255889673, 4.458236217498779, -1.4650087480064632e-25, -1.4650087480064632e-25, 4.789353370666504, -1.4650087480064632e-25, -1.4650087480064632e-25, -1.4650087480064632e-25, -1.4650087480064632e-25
110281.259889673, 3.063927412033081, 2.6652681341307356e-25, 2.6652681341307356e-25, 2.783701181411743, 2.6652681341307356e-25, 2.6652681341307356e-25, 2.6652681341307356e-25, 2.6652681341307356e-25
110281.263889673, 6.1324992179870605, 4.1302767588776824e-25, 4.1302767588776824e-25, 5.126507759094238, 4.1302767588776824e-25, 4.1302767588776824e-25, 4.1302767588776824e-25, 4.1302767588776824e-25
110281.267889673, 8.576786994934082, 1.4650087480064632e-25, 1.4650087480064632e-25, 7.4020867347717285, 1.4650087480064632e-25, 1.4650087480064632e-25, 1.4650087480064632e-25, 1.4650087480064632e-25
110281.27188967301, 5.878507137298584, -2.6652681341307356e-25, -2.6652681341307356e-25, 5.098297595977783, -2.6652681341307356e-25, -2.6652681341307356e-25, -2.6652681341307356e-25, -2.6652681341307356e-25
110281.27588967301, 2.6511566638946533, -4.1302767588776824e-25, -4.1302767588776824e-25, 2.293879747390747, -4.1302767588776824e-25, -4.1302767588776824e-25, -4.1302767588776824e-25, -4.1302767588776824e-25
110281.27988967301, 4.4194536209106445, -1.4650087480064632e-25, -1.4650087480064632e-25, 4.375854015350342, -1.4650087480064632e-25, -1.4650087480064632e-25, -1.4650087480064632e-25, -1.4650087480064632e-25
110281.28388967301, 7.478246688842773, 2.6652681341307356e-25, 2.6652681341307356e-25, 7.8678202629089355, 2.6652681341307356e-25, 2.6652681341307356e-25, 2.6652681341307356e-25, 2.6652681341307356e-25
110281.28788967301, 5.823077201843262, 4.1302767588776824e-25, 4.1302767588776824e-25, 6.572930335998535, 4.1302767588776824e-25, 4.1302767588776824e-25, 4.1302767588776824e-25, 4.1302767588776824e-25
110281.36344929301, 1.9490492343902588, 2.6652681341307356e-25, 2.6652681341307356e-25, 1.8155438899993896, 2.6652681341307356e-25, 2.6652681341307356e-25, 2.6652681341307356e-25, 2.6652681341307356e-25
110281.37544929302, 0.7126275300979614, -2.6652681341307356e-25, -2.6652681341307356e-25, 0.7845245599746704, -2.6652681341307356e-25, -2.6652681341307356e-25, -2.6652681341307356e-25, -2.6652681341307356e-25
110281.37944929302, 3.4930412769317627, -4.1302767588776824e-25, -4.1302767588776824e-25, 3.1693928241729736, -4.1302767588776824e-25, -4.1302767588776824e-25, -4.1302767588776824e-25, -4.1302767588776824e-25
110281.38344929302, 0.37685495615005493, -1.4650087480064632e-25, -1.4650087480064632e-25, -0.09974294155836105, -1.4650087480064632e-25, -1.4650087480064632e-25, -1.4650087480064632e-25, -1.4650087480064632e-25
110281.44938167601, 2.173920154571533, -4.1302767588776824e-25, -4.1302767588776824e-25, 2.185258388519287, -4.1302767588776824e-25, -4.1302767588776824e-25, -4.1302767588776824e-25, -4.1302767588776824e-25
110281.45338167601, 3.2387375831604004, -1.4650087480064632e-25, -1.4650087480064632e-25, 3.6733787059783936, -1.4650087480064632e-25, -1.4650087480064632e-25, -1.4650087480064632e-25, -1.4650087480064632e-25
110281.46538167601, 0.1892303228378296, 1.4650087480064632e-25, 1.4650087480064632e-25, 0.8351185321807861, 1.4650087480064632e-25, 1.4650087480064632e-25, 1.4650087480064632e-25, 1.4650087480064632e-25
110281.46938167601, 2.8773651123046875, -2.6652681341307356e-25, -2.6652681341307356e-25, 3.625532388687134, -2.6652681341307356e-25, -2.6652681341307356e-25, -2.6652681341307356e-25, -2.6652681341307356e-25
110281.47338167601, 0.113371841609478, -4.1302767588776824e-25, -4.1302767588776824e-25, 0.526040256023407, -4.1302767588776824e-25, -4.1302767588776824e-25, -4.1302767588776824e-25, -4.1302767588776824e-25
110281.48538167602, 2.704559803009033, 4.1302767588776824e-25, 4.1302767588776824e-25, 2.4420669078826904, 4.1302767588776824e-25, 4.1302767588776824e-25, 4.1302767588776824e-25, 4.1302767588776824e-25
110281.54842628, 3.531489610671997, -4.1302767588776824e-25, -4.1302767588776824e-25, 3.6015846729278564, -4.1302767588776824e-25, -4.1302767588776824e-25, -4.1302767588776824e-25, -4.1302767588776824e-25
110281.55242628, 1.539512038230896, -1.4650087480064632e-25, -1.4650087480064632e-25, 1.7001640796661377, -1.4650087480064632e-25, -1.4650087480064632e-25, -1.4650087480064632e-25, -1.4650087480064632e-25
110281.56042628, 1.7202630043029785, 4.1302767588776824e-25, 4.1302767588776824e-25, 1.5621522665023804, 4.1302767588776824e-25, 4.1302767588776824e-25, 4.1302767588776824e-25, 4.1302767588776824e-25
110281.56442628, 4.601100921630859, 1.4650087480064632e-25, 1.4650087480064632e-25, 4.541812896728516, 1.4650087480064632e-25, 1.4650087480064632e-25, 1.4650087480064632e-25, 1.4650087480064632e-25
110281.56842628, 1.8887367248535156, -2.6652681341307356e-25, -2.6652681341307356e-25, 2.1792261600494385, -2.6652681341307356e-25, -2.6652681341307356e-25, -2.6652681341307356e-25, -2.6652681341307356e-25
110281.57642628001, 0.4976268708705902, -1.4650087480064632e-25, -1.4650087480064632e-25, 0.3584209978580475, -1.4650087480064632e-25, -1.4650087480064632e-25, -1.4650087480064632e-25, -1.4650087480064632e-25
110281.58042628001, 3.704076051712036, 2.6652681341307356e-25, 2.6652681341307356e-25, 3.097867965698242, 2.6652681341307356e-25, 2.6652681341307356e-25, 2.6652681341307356e-25, 2.6652681341307356e-25
110281.58442628001, 0.6699678301811218, 4.1302767588776824e-25, 4.1302767588776824e-25, 0.03325888141989708, 4.1302767588776824e-25, 4.1302767588776824e-25, 4.1302767588776824e-25, 4.1302767588776824e-25
110281.65547831701, 2.1577203273773193, 2.6652681341307356e-25, 2.6652681341307356e-25, 1.2962344884872437, 2.6652681341307356e-25, 2.6652681341307356e-25, 2.6652681341307356e-25, 2.6652681341307356e-25
110281.67147831702, 1.8133939504623413, -4.1302767588776824e-25, -4.1302767588776824e-25, 1.8259166479110718, -4.1302767588776824e-25, -4.1302767588776824e-25, -4.1302767588776824e-25, -4.1302767588776824e-25
110281.67547831702, 0.5960884094238281, -1.4650087480064632e-25, -1.4650087480064632e-25, 1.015414834022522, -1.4650087480064632e-25, -1.4650087480064632e-25, -1.4650087480064632e-25, -1.4650087480064632e-25
110281.745058143, 3.3324203491210938, -4.1302767588776824e-25, -4.1302767588776824e-25, 2.936535120010376, -4.1302767588776824e-25, -4.1302767588776824e-25, -4.1302767588776824e-25, -4.1302767588776824e-25
110281.749058143, 7.0280914306640625, -1.4650087480064632e-25, -1.4650087480064632e-25, 6.253568172454834, -1.4650087480064632e-25, -1.4650087480064632e-25, -1.4650087480064632e-25, -1.4650087480064632e-25
110281.753058143, 1.2610059976577759, 2.6652681341307356e-25, 2.6652681341307356e-25, 0.4110453128814697, 2.6652681341307356e-25, 2.6652681341307356e-25, 2.6652681341307356e-25, 2.6652681341307356e-25
110281.765058143, 4.4301018714904785, -2.6652681341307356e-25, -2.6652681341307356e-25, 4.735712051391602, -2.6652681341307356e-25, -2.6652681341307356e-25, -2.6652681341307356e-25, -2.6652681341307356e-25
110281.769058143, 0.5080916881561279, -4.1302767588776824e-25, -4.1302767588776824e-25, 0.975379467010498, -4.1302767588776824e-25, -4.1302767588776824e-25, -4.1302767588776824e-25, -4.1302767588776824e-25
110281.78105814301, 1.5817519426345825, 4.1302767588776824e-25, 4.1302767588776824e-25, 2.2721219062805176, 4.1302767588776824e-25, 4.1302767588776824e-25, 4.1302767588776824e-25, 4.1302767588776824e-25
110281.82508387, 0.281220942735672, -4.1302767588776824e-25, -4.1302767588776824e-25, 0.29873743653297424, -4.1302767588776824e-25, -4.1302767588776824e-25, -4.1302767588776824e-25, -4.1302767588776824e-25
110281.82908387, 2.4830262660980225, -1.4650087480064632e-25, -1.4650087480064632e-25, 2.456512451171875, -1.4650087480064632e-25, -1.4650087480064632e-25, -1.4650087480064632e-25, -1.4650087480064632e-25
110281.84108387001, 0.1881730705499649, 1.4650087480064632e-25, 1.4650087480064632e-25, -1.2391235828399658, 1.4650087480064632e-25, 1.4650087480064632e-25, 1.4650087480064632e-25, 1.4650087480064632e-25
110281.84508387001, 4.467785358428955, -2.6652681341307356e-25, -2.6652681341307356e-25, 3.3958401679992676, -2.6652681341307356e-25, -2.6652681341307356e-25, -2.6652681341307356e-25, -2.6652681341307356e-25
110281.86108387001, 3.5633535385131836, 4.1302767588776824e-25, 4.1302767588776824e-25, 4.035254001617432, 4.1302767588776824e-25, 4.1302767588776824e-25, 4.1302767588776824e-25, 4.1302767588776824e-25
110281.92503604801, 8.819860458374023, 2.6652681341307356e-25, 2.6652681341307356e-25, 5.930004596710205, 2.6652681341307356e-25, 2.6652681341307356e-25, 2.6652681341307356e-25, 2.6652681341307356e-25
110281.92903604801, 37.2546272277832, 4.1302767588776824e-25, 4.1302767588776824e-25, 2.054894208908081, 4.1302767588776824e-25, 4.1302767588776824e-25, 4.1302767588776824e-25, 4.1302767588776824e-25
110281.93303604801, 30.042144775390625, 1.4650087480064632e-25, 1.4650087480064632e-25, 0.13566812872886658, 1.4650087480064632e-25, 1.4650087480064632e-25, 1.4650087480064632e-25, 1.4650087480064632e-25
110281.93703604801, 10.08432388305664, -2.6652681341307356e-25, -2.6652681341307356e-25, 4.237382888793945, -2.6652681341307356e-25, -2.6652681341307356e-25, -2.6652681341307356e-25, -2.6652681341307356e-25
110281.94103604801, 17.56549835205078, -4.1302767588776824e-25, -4.1302767588776824e-25, 6.8886542320251465, -4.1302767588776824e-25, -4.1302767588776824e-25, -4.1302767588776824e-25, -4.1302767588776824e-25
110281.94503604801, 36.861942291259766, -1.4650087480064632e-25, -1.4650087480064632e-25, 2.4986579418182373, -1.4650087480064632e-25, -1.4650087480064632e-25, -1.4650087480064632e-25, -1.4650087480064632e-25
110281.94903604801, 26.4898681640625, 2.6652681341307356e-25, 2.6652681341307356e-25, -2.4010276794433594, 2.6652681341307356e-25, 2.6652681341307356e-25, 2.6652681341307356e-25, 2.6652681341307356e-25
110282.01557992201, 1.0675462484359741, 2.6652681341307356e-25, 2.6652681341307356e-25, -3.559117078781128, 2.6652681341307356e-25, 2.6652681341307356e-25, 2.6652681341307356e-25, 2.6652681341307356e-25
110282.03157992201, 12.929444313049316, -4.1302767588776824e-25, -4.1302767588776824e-25, 1.1469591856002808, -4.1302767588776824e-25, -4.1302767588776824e-25, -4.1302767588776824e-25, -4.1302767588776824e-25
110282.03557992201, 4.589048862457275, -1.4650087480064632e-25, -1.4650087480064632e-25, -1.9684427976608276, -1.4650087480064632e-25, -1.4650087480064632e-25, -1.4650087480064632e-25, -1.4650087480064632e-25
110282.10596532801, 7.454920291900635, -4.1302767588776824e-25, -4.1302767588776824e-25, -2.6442015171051025, -4.1302767588776824e-25, -4.1302767588776824e-25, -4.1302767588776824e-25, -4.1302767588776824e-25
110282.11796532801, 4.538973331451416, 4.1302767588776824e-25, 4.1302767588776824e-25, 0.5461047291755676, 4.1302767588776824e-25, 4.1302767588776824e-25, 4.1302767588776824e-25, 4.1302767588776824e-25
110282.12196532801, 3.16731595993042, 1.4650087480064632e-25, 1.4650087480064632e-25, -3.216015338897705, 1.4650087480064632e-25, 1.4650087480064632e-25, 1.4650087480064632e-25, 1.4650087480064632e-25
110282.13396532802, 5.687190055847168, -1.4650087480064632e-25, -1.4650087480064632e-25, 1.025956392288208, -1.4650087480064632e-25, -1.4650087480064632e-25, -1.4650087480064632e-25, -1.4650087480064632e-25
110282.13796532802, 5.394406795501709, 2.6652681341307356e-25, 2.6652681341307356e-25, -2.426391124725342, 2.6652681341307356e-25, 2.6652681341307356e-25, 2.6652681341307356e-25, 2.6652681341307356e-25
110282.20653707301, 9.481958389282227, -1.4650087480064632e-25, -1.4650087480064632e-25, -4.692432403564453, -1.4650087480064632e-25, -1.4650087480064632e-25, -1.4650087480064632e-25, -1.4650087480064632e-25
110282.21053707301, 5.491621494293213, 2.6652681341307356e-25, 2.6652681341307356e-25, -7.063080787658691, 2.6652681341307356e-25, 2.6652681341307356e-25, 2.6652681341307356e-25, 2.6652681341307356e-25
110282.22253707302, 1.7067105770111084, -2.6652681341307356e-25, -2.6652681341307356e-25, -3.599496603012085, -2.6652681341307356e-25, -2.6652681341307356e-25, -2.6652681341307356e-25, -2.6652681341307356e-25
110282.297545466, 19.383697509765625, -4.1302767588776824e-25, -4.1302767588776824e-25, -0.241432324051857, -4.1302767588776824e-25, -4.1302767588776824e-25, -4.1302767588776824e-25, -4.1302767588776824e-25
110282.301545466, 14.773961067199707, -1.4650087480064632e-25, -1.4650087480064632e-25, -2.704350471496582, -1.4650087480064632e-25, -1.4650087480064632e-25, -1.4650087480064632e-25, -1.4650087480064632e-25
110282.305545466, 1.5818296670913696, 2.6652681341307356e-25, 2.6652681341307356e-25, 1.1625916957855225, 2.6652681341307356e-25, 2.6652681341307356e-25, 2.6652681341307356e-25, 2.6652681341307356e-25
110282.309545466, 1.4008885622024536, 4.1302767588776824e-25, 4.1302767588776824e-25, 3.794541835784912, 4.1302767588776824e-25, 4.1302767588776824e-25, 4.1302767588776824e-25, 4.1302767588776824e-25
110282.31354546601, 7.316142559051514, 1.4650087480064632e-25, 1.4650087480064632e-25, -0.2900184392929077, 1.4650087480064632e-25, 1.4650087480064632e-25, 1.4650087480064632e-25, 1.4650087480064632e-25
110282.32954546601, 8.841283798217773, 2.6652681341307356e-25, 2.6652681341307356e-25, 1.68546462059021, 2.6652681341307356e-25, 2.6652681341307356e-25, 2.6652681341307356e-25, 2.6652681341307356e-25
110282.33354546601, 14.693767547607422, 4.1302767588776824e-25, 4.1302767588776824e-25, -2.848606824874878, 4.1302767588776824e-25, 4.1302767588776824e-25, 4.1302767588776824e-25, 4.1302767588776824e-25
110282.41284533501, 14.521528244018555, -4.1302767588776824e-25, -4.1302767588776824e-25, 16.74209213256836, -4.1302767588776824e-25, -4.1302767588776824e-25, -4.1302767588776824e-25, -4.1302767588776824e-25
110282.41684533501, 44.9151496887207, -1.4650087480064632e-25, -1.4650087480064632e-25, 10.801841735839844, -1.4650087480064632e-25, -1.4650087480064632e-25, -1.4650087480064632e-25, -1.4650087480064632e-25
110282.42084533501, 46.721466064453125, 2.6652681341307356e-25, 2.6652681341307356e-25, 7.133810997009277, 2.6652681341307356e-25, 2.6652681341307356e-25, 2.6652681341307356e-25, 2.6652681341307356e-25
110282.42484533502, 28.407297134399414, 4.1302767588776824e-25, 4.1302767588776824e-25, 7.635119915008545, 4.1302767588776824e-25, 4.1302767588776824e-25, 4.1302767588776824e-25, 4.1302767588776824e-25
110282.49824898301, 3.4772727489471436, -1.4650087480064632e-25, -1.4650087480064632e-25, -2.3238120079040527, -1.4650087480064632e-25, -1.4650087480064632e-25, -1.4650087480064632e-25, -1.4650087480064632e-25
110282.55413690601, 1.8286173343658447, -4.1302767588776824e-25, -4.1302767588776824e-25, 1.1290030479431152, -4.1302767588776824e-25, -4.1302767588776824e-25, -4.1302767588776824e-25, -4.1302767588776824e-25
110282.56213690601, 3.6428940296173096, 2.6652681341307356e-25, 2.6652681341307356e-25, 3.7626912593841553, 2.6652681341307356e-25, 2.6652681341307356e-25, 2.6652681341307356e-25, 2.6652681341307356e-25
110282.56613690601, 7.141526699066162, 4.1302767588776824e-25, 4.1302767588776824e-25, -0.6109988689422607, 4.1302767588776824e-25, 4.1302767588776824e-25, 4.1302767588776824e-25, 4.1302767588776824e-25
110282.57813690601, 9.573607444763184, -4.1302767588776824e-25, -4.1302767588776824e-25, 4.479423999786377, -4.1302767588776824e-25, -4.1302767588776824e-25, -4.1302767588776824e-25, -4.1302767588776824e-25
110282.58213690601, 18.963211059570312, -1.4650087480064632e-25, -1.4650087480064632e-25, 1.0146851539611816, -1.4650087480064632e-25, -1.4650087480064632e-25, -1.4650087480064632e-25, -1.4650087480064632e-25
110282.58613690601, 13.064569473266602, 2.6652681341307356e-25, 2.6652681341307356e-25, -1.3081649541854858, 2.6652681341307356e-25, 2.6652681341307356e-25, 2.6652681341307356e-25, 2.6652681341307356e-25
110282.59013690602, 2.394399404525757, 4.1302767588776824e-25, 4.1302767588776824e-25, 1.5598617792129517, 4.1302767588776824e-25, 4.1302767588776824e-25, 4.1302767588776824e-25, 4.1302767588776824e-25
110282.63628681801, 5.2579569816589355, -1.4650087480064632e-25, -1.4650087480064632e-25, 0.32787445187568665, -1.4650087480064632e-25, -1.4650087480064632e-25, -1.4650087480064632e-25, -1.4650087480064632e-25
110282.64028681802, 3.93093204498291, 2.6652681341307356e-25, 2.6652681341307356e-25, -2.4340980052948, 2.6652681341307356e-25, 2.6652681341307356e-25, 2.6652681341307356e-25, 2.6652681341307356e-25
110282.706345419, 9.859972953796387, -4.1302767588776824e-25, -4.1302767588776824e-25, -2.096092700958252, -4.1302767588776824e-25, -4.1302767588776824e-25, -4.1302767588776824e-25, -4.1302767588776824e-25
110282.71434541901, 1.872615933418274, 2.6652681341307356e-25, 2.6652681341307356e-25, 3.868382692337036, 2.6652681341307356e-25, 2.6652681341307356e-25, 2.6652681341307356e-25, 2.6652681341307356e-25
110282.71834541901, 23.54972267150879, 4.1302767588776824e-25, 4.1302767588776824e-25, 2.72928524017334, 4.1302767588776824e-25, 4.1302767588776824e-25, 4.1302767588776824e-25, 4.1302767588776824e-25
110282.72234541901, 23.833444595336914, 1.4650087480064632e-25, 1.4650087480064632e-25, -0.8217253088951111, 1.4650087480064632e-25, 1.4650087480064632e-25, 1.4650087480064632e-25, 1.4650087480064632e-25
110282.73434541901, 2.0471315383911133, -1.4650087480064632e-25, -1.4650087480064632e-25, 2.483391761779785, -1.4650087480064632e-25, -1.4650087480064632e-25, -1.4650087480064632e-25, -1.4650087480064632e-25
110282.73834541901, 14.521910667419434, 2.6652681341307356e-25, 2.6652681341307356e-25, 0.0560353547334671, 2.6652681341307356e-25, 2.6652681341307356e-25, 2.6652681341307356e-25, 2.6652681341307356e-25
110282.74234541901, 4.1819634437561035, 4.1302767588776824e-25, 4.1302767588776824e-25, 0.48364877700805664, 4.1302767588776824e-25, 4.1302767588776824e-25, 4.1302767588776824e-25, 4.1302767588776824e-25
110282.788061621, 3.193608045578003, -1.4650087480064632e-25, -1.4650087480064632e-25, -0.6563065648078918, -1.4650087480064632e-25, -1.4650087480064632e-25, -1.4650087480064632e-25, -1.4650087480064632e-25
110282.804061621, 12.234468460083008, -2.6652681341307356e-25, -2.6652681341307356e-25, 0.7187438011169434, -2.6652681341307356e-25, -2.6652681341307356e-25, -2.6652681341307356e-25, -2.6652681341307356e-25
110282.808061621, 9.89193344116211, -4.1302767588776824e-25, -4.1302767588776824e-25, -0.8597673177719116, -4.1302767588776824e-25, -4.1302767588776824e-25, -4.1302767588776824e-25, -4.1302767588776824e-25
110282.82006162101, 2.2389886379241943, 4.1302767588776824e-25, 4.1302767588776824e-25, 1.1732590198516846, 4.1302767588776824e-25, 4.1302767588776824e-25, 4.1302767588776824e-25, 4.1302767588776824e-25
110282.88663764001, 0.20194917917251587, -1.4650087480064632e-25, -1.4650087480064632e-25, 3.9003536701202393, -1.4650087480064632e-25, -1.4650087480064632e-25, -1.4650087480064632e-25, -1.4650087480064632e-25
110282.89063764001, 12.584097862243652, 2.6652681341307356e-25, 2.6652681341307356e-25, 0.9118019342422485, 2.6652681341307356e-25, 2.6652681341307356e-25, 2.6652681341307356e-25, 2.6652681341307356e-25
110282.89463764001, 2.521233558654785, 4.1302767588776824e-25, 4.1302767588776824e-25, -1.7661539316177368, 4.1302767588776824e-25, 4.1302767588776824e-25, 4.1302767588776824e-25, 4.1302767588776824e-25
110282.90663764002, 8.308135986328125, -4.1302767588776824e-25, -4.1302767588776824e-25, 0.9666259288787842, -4.1302767588776824e-25, -4.1302767588776824e-25, -4.1302767588776824e-25, -4.1302767588776824e-25
110282.91063764002, 0.6343491077423096, -1.4650087480064632e-25, -1.4650087480064632e-25, -0.9732474684715271, -1.4650087480064632e-25, -1.4650087480064632e-25, -1.4650087480064632e-25, -1.4650087480064632e-25
110282.965981278, 8.503801345825195, -4.1302767588776824e-25, -4.1302767588776824e-25, -0.7372961044311523, -4.1302767588776824e-25, -4.1302767588776824e-25, -4.1302767588776824e-25, -4.1302767588776824e-25
110282.977981278, 1.601472020149231, 4.1302767588776824e-25, 4.1302767588776824e-25, 2.845750331878662, 4.1302767588776824e-25, 4.1302767588776824e-25, 4.1302767588776824e-25, 4.1302767588776824e-25
110282.981981278, 18.63697624206543, 1.4650087480064632e-25, 1.4650087480064632e-25, -0.7210655212402344, 1.4650087480064632e-25, 1.4650087480064632e-25, 1.4650087480064632e-25, 1.4650087480064632e-25
110282.985981278, 3.524231195449829, -2.6652681341307356e-25, -2.6652681341307356e-25, -3.0378060340881348, -2.6652681341307356e-25, -2.6652681341307356e-25, -2.6652681341307356e-25, -2.6652681341307356e-25
110282.99798127801, 7.843564987182617, 2.6652681341307356e-25, 2.6652681341307356e-25, 1.3669219017028809, 2.6652681341307356e-25, 2.6652681341307356e-25, 2.6652681341307356e-25, 2.6652681341307356e-25
110283.00198127801, 7.1122050285339355, 4.1302767588776824e-25, 4.1302767588776824e-25, -1.1896677017211914, 4.1302767588776824e-25, 4.1302767588776824e-25, 4.1302767588776824e-25, 4.1302767588776824e-25
110283.01811899601, 9.634615898132324, -1.4650087480064632e-25, -1.4650087480064632e-25, -0.2710261344909668, -1.4650087480064632e-25, -1.4650087480064632e-25, -1.4650087480064632e-25, -1.4650087480064632e-25
110283.02211899601, 15.562467575073242, 2.6652681341307356e-25, 2.6652681341307356e-25, -3.9499173164367676, 2.6652681341307356e-25, 2.6652681341307356e-25, 2.6652681341307356e-25, 2.6652681341307356e-25
110283.02611899601, 0.6691643595695496, 4.1302767588776824e-25, 4.1302767588776824e-25, -2.8076117038726807, 4.1302767588776824e-25, 4.1302767588776824e-25, 4.1302767588776824e-25, 4.1302767588776824e-25
110283.03411899602, 0.5267894864082336, -2.6652681341307356e-25, -2.6652681341307356e-25, -0.056531280279159546, -2.6652681341307356e-25, -2.6652681341307356e-25, -2.6652681341307356e-25, -2.6652681341307356e-25
110283.03811899602, 13.457808494567871, -4.1302767588776824e-25, -4.1302767588776824e-25, -3.361881971359253, -4.1302767588776824e-25, -4.1302767588776824e-25, -4.1302767588776824e-25, -4.1302767588776824e-25
110283.04211899602, 4.728942394256592, -1.4650087480064632e-25, -1.4650087480064632e-25, -2.6001369953155518, -1.4650087480064632e-25, -1.4650087480064632e-25, -1.4650087480064632e-25, -1.4650087480064632e-25
110283.10175912101, 11.092750549316406, -1.4650087480064632e-25, -1.4650087480064632e-25, -0.10063525289297104, -1.4650087480064632e-25, -1.4650087480064632e-25, -1.4650087480064632e-25, -1.4650087480064632e-25
110283.10575912101, 11.100189208984375, 2.6652681341307356e-25, 2.6652681341307356e-25, -3.4981868267059326, 2.6652681341307356e-25, 2.6652681341307356e-25, 2.6652681341307356e-25, 2.6652681341307356e-25
110283.11775912101, 2.2313671112060547, -2.6652681341307356e-25, -2.6652681341307356e-25, 0.056034475564956665, -2.6652681341307356e-25, -2.6652681341307356e-25, -2.6652681341307356e-25, -2.6652681341307356e-25
110283.12175912102, 11.495149612426758, -4.1302767588776824e-25, -4.1302767588776824e-25, -3.179095983505249, -4.1302767588776824e-25, -4.1302767588776824e-25, -4.1302767588776824e-25, -4.1302767588776824e-25
110283.13375912102, 6.848859786987305, 4.1302767588776824e-25, 4.1302767588776824e-25, 3.2617809772491455, 4.1302767588776824e-25, 4.1302767588776824e-25, 4.1302767588776824e-25, 4.1302767588776824e-25
110283.196921238, 10.493692398071289, 2.6652681341307356e-25, 2.6652681341307356e-25, 1.9364241361618042, 2.6652681341307356e-25, 2.6652681341307356e-25, 2.6652681341307356e-25, 2.6652681341307356e-25
110283.200921238, 12.388079643249512, 4.1302767588776824e-25, 4.1302767588776824e-25, -1.811289668083191, 4.1302767588776824e-25, 4.1302767588776824e-25, 4.1302767588776824e-25, 4.1302767588776824e-25
110283.21292123801, 13.990172386169434, -4.1302767588776824e-25, -4.1302767588776824e-25, 0.34983572363853455, -4.1302767588776824e-25, -4.1302767588776824e-25, -4.1302767588776824e-25, -4.1302767588776824e-25
110283.21692123801, 14.390737533569336, -1.4650087480064632e-25, -1.4650087480064632e-25, -2.6039085388183594, -1.4650087480064632e-25, -1.4650087480064632e-25, -1.4650087480064632e-25, -1.4650087480064632e-25
110283.26883272201, 7.571247100830078, 2.6652681341307356e-25, 2.6652681341307356e-25, -0.2385524958372116, 2.6652681341307356e-25, 2.6652681341307356e-25, 2.6652681341307356e-25, 2.6652681341307356e-25
110283.27283272201, 2.3116955757141113, 4.1302767588776824e-25, 4.1302767588776824e-25, -2.979672431945801, 4.1302767588776824e-25, 4.1302767588776824e-25, 4.1302767588776824e-25, 4.1302767588776824e-25
110283.28483272201, 12.786639213562012, -4.1302767588776824e-25, -4.1302767588776824e-25, 0.37210655212402344, -4.1302767588776824e-25, -4.1302767588776824e-25, -4.1302767588776824e-25, -4.1302767588776824e-25
110283.28883272201, 11.290313720703125, -1.4650087480064632e-25, -1.4650087480064632e-25, -2.838064193725586, -1.4650087480064632e-25, -1.4650087480064632e-25, -1.4650087480064632e-25, -1.4650087480064632e-25
110283.315976269, 2.8551249504089355, -1.4650087480064632e-25, -1.4650087480064632e-25, 2.023272752761841, -1.4650087480064632e-25, -1.4650087480064632e-25, -1.4650087480064632e-25, -1.4650087480064632e-25
110283.319976269, 7.702003479003906, 2.6652681341307356e-25, 2.6652681341307356e-25, -2.647238254547119, 2.6652681341307356e-25, 2.6652681341307356e-25, 2.6652681341307356e-25, 2.6652681341307356e-25
110283.33597626901, 4.441163063049316, -4.1302767588776824e-25, -4.1302767588776824e-25, -1.45235013961792, -4.1302767588776824e-25, -4.1302767588776824e-25, -4.1302767588776824e-25, -4.1302767588776824e-25
110283.41274907101, 4.944766998291016, -1.4650087480064632e-25, -1.4650087480064632e-25, 3.3509795665740967, -1.4650087480064632e-25, -1.4650087480064632e-25, -1.4650087480064632e-25, -1.4650087480064632e-25
110283.41674907101, 16.040483474731445, 2.6652681341307356e-25, 2.6652681341307356e-25, -2.476755142211914, 2.6652681341307356e-25, 2.6652681341307356e-25, 2.6652681341307356e-25, 2.6652681341307356e-25
110283.42874907101, 8.50502872467041, -2.6652681341307356e-25, -2.6652681341307356e-25, 4.2215471267700195, -2.6652681341307356e-25, -2.6652681341307356e-25, -2.6652681341307356e-25, -2.6652681341307356e-25
110283.43274907101, 19.89019203186035, -4.1302767588776824e-25, -4.1302767588776824e-25, 1.1322499513626099, -4.1302767588776824e-25, -4.1302767588776824e-25, -4.1302767588776824e-25, -4.1302767588776824e-25
110283.43674907101, 0.9314965605735779, -1.4650087480064632e-25, -1.4650087480064632e-25, -0.09996908903121948, -1.4650087480064632e-25, -1.4650087480064632e-25, -1.4650087480064632e-25, -1.4650087480064632e-25
110283.44474907102, 4.662625789642334, 4.1302767588776824e-25, 4.1302767588776824e-25, 4.870588779449463, 4.1302767588776824e-25, 4.1302767588776824e-25, 4.1302767588776824e-25, 4.1302767588776824e-25
110283.489349926, 12.717964172363281, -4.1302767588776824e-25, -4.1302767588776824e-25, -3.1846210956573486, -4.1302767588776824e-25, -4.1302767588776824e-25, -4.1302767588776824e-25, -4.1302767588776824e-25
110283.50134992601, 6.738465309143066, 4.1302767588776824e-25, 4.1302767588776824e-25, 0.7450495958328247, 4.1302767588776824e-25, 4.1302767588776824e-25, 4.1302767588776824e-25, 4.1302767588776824e-25
110283.50534992601, 7.1274566650390625, 1.4650087480064632e-25, 1.4650087480064632e-25, -4.75288200378418, 1.4650087480064632e-25, 1.4650087480064632e-25, 1.4650087480064632e-25, 1.4650087480064632e-25
110283.51734992601, 6.9439802169799805, -1.4650087480064632e-25, -1.4650087480064632e-25, 0.36429330706596375, -1.4650087480064632e-25, -1.4650087480064632e-25, -1.4650087480064632e-25, -1.4650087480064632e-25
110283.52134992601, 13.942374229431152, 2.6652681341307356e-25, 2.6652681341307356e-25, -5.285034656524658, 2.6652681341307356e-25, 2.6652681341307356e-25, 2.6652681341307356e-25, 2.6652681341307356e-25
110283.585427628, 8.793509483337402, -4.1302767588776824e-25, -4.1302767588776824e-25, 1.5310879945755005, -4.1302767588776824e-25, -4.1302767588776824e-25, -4.1302767588776824e-25, -4.1302767588776824e-25
110283.589427628, 12.618901252746582, -1.4650087480064632e-25, -1.4650087480064632e-25, -3.2123935222625732, -1.4650087480064632e-25, -1.4650087480064632e-25, -1.4650087480064632e-25, -1.4650087480064632e-25
110283.601427628, 3.216900110244751, 1.4650087480064632e-25, 1.4650087480064632e-25, 0.5329519510269165, 1.4650087480064632e-25, 1.4650087480064632e-25, 1.4650087480064632e-25, 1.4650087480064632e-25
110283.605427628, 10.017847061157227, -2.6652681341307356e-25, -2.6652681341307356e-25, -5.483193397521973, -2.6652681341307356e-25, -2.6652681341307356e-25, -2.6652681341307356e-25, -2.6652681341307356e-25
110283.62142762801, 6.237899303436279, 4.1302767588776824e-25, 4.1302767588776824e-25, 0.1657661348581314, 4.1302767588776824e-25, 4.1302767588776824e-25, 4.1302767588776824e-25, 4.1302767588776824e-25
110283.66797749301, 28.54259490966797, -4.1302767588776824e-25, -4.1302767588776824e-25, 3.066122531890869, -4.1302767588776824e-25, -4.1302767588776824e-25, -4.1302767588776824e-25, -4.1302767588776824e-25
110283.67197749301, 26.853116989135742, -1.4650087480064632e-25, -1.4650087480064632e-25, -1.3485558032989502, -1.4650087480064632e-25, -1.4650087480064632e-25, -1.4650087480064632e-25, -1.4650087480064632e-25
110283.67597749301, 3.248112440109253, 2.6652681341307356e-25, 2.6652681341307356e-25, 0.22655431926250458, 2.6652681341307356e-25, 2.6652681341307356e-25, 2.6652681341307356e-25, 2.6652681341307356e-25
110283.68397749301, 18.39350700378418, 1.4650087480064632e-25, 1.4650087480064632e-25, -1.535893440246582, 1.4650087480064632e-25, 1.4650087480064632e-25, 1.4650087480064632e-25, 1.4650087480064632e-25
110283.68797749301, 16.87471580505371, -2.6652681341307356e-25, -2.6652681341307356e-25, -7.919562816619873, -2.6652681341307356e-25, -2.6652681341307356e-25, -2.6652681341307356e-25, -2.6652681341307356e-25
110283.70397749302, 0.2685985863208771, 4.1302767588776824e-25, 4.1302767588776824e-25, -7.609268665313721, 4.1302767588776824e-25, 4.1302767588776824e-25, 4.1302767588776824e-25, 4.1302767588776824e-25
110283.76752886001, 28.287967681884766, -1.4650087480064632e-25, -1.4650087480064632e-25, 2.969299793243408, -1.4650087480064632e-25, -1.4650087480064632e-25, -1.4650087480064632e-25, -1.4650087480064632e-25
110283.77152886002, 26.76484489440918, 2.6652681341307356e-25, 2.6652681341307356e-25, -2.4558162689208984, 2.6652681341307356e-25, 2.6652681341307356e-25, 2.6652681341307356e-25, 2.6652681341307356e-25
110283.78352886002, 8.972317695617676, -2.6652681341307356e-25, -2.6652681341307356e-25, 1.5467653274536133, -2.6652681341307356e-25, -2.6652681341307356e-25, -2.6652681341307356e-25, -2.6652681341307356e-25
110283.78752886002, 18.038206100463867, -4.1302767588776824e-25, -4.1302767588776824e-25, -3.778355121612549, -4.1302767588776824e-25, -4.1302767588776824e-25, -4.1302767588776824e-25, -4.1302767588776824e-25
110283.865035829, 11.84361457824707, -1.4650087480064632e-25, -1.4650087480064632e-25, -0.8218140602111816, -1.4650087480064632e-25, -1.4650087480064632e-25, -1.4650087480064632e-25, -1.4650087480064632e-25
110283.869035829, 5.7420477867126465, 2.6652681341307356e-25, 2.6652681341307356e-25, -4.498578071594238, 2.6652681341307356e-25, 2.6652681341307356e-25, 2.6652681341307356e-25, 2.6652681341307356e-25
110283.881035829, 2.4549367427825928, -2.6652681341307356e-25, -2.6652681341307356e-25, 0.607271134853363, -2.6652681341307356e-25, -2.6652681341307356e-25, -2.6652681341307356e-25, -2.6652681341307356e-25
110283.88503582901, 5.958006381988525, -4.1302767588776824e-25, -4.1302767588776824e-25, -2.73797869682312, -4.1302767588776824e-25, -4.1302767588776824e-25, -4.1302767588776824e-25, -4.1302767588776824e-25
110283.96345939001, 3.492079496383667, 4.1302767588776824e-25, 4.1302767588776824e-25, 6.173137187957764, 4.1302767588776824e-25, 4.1302767588776824e-25, 4.1302767588776824e-25, 4.1302767588776824e-25
110283.96745939001, 2.2732925415039062, 1.4650087480064632e-25, 1.4650087480064632e-25, 4.107312202453613, 1.4650087480064632e-25, 1.4650087480064632e-25, 1.4650087480064632e-25, 1.4650087480064632e-25
110283.97545939001, 3.6182165145874023, -4.1302767588776824e-25, -4.1302767588776824e-25, 4.023280620574951, -4.1302767588776824e-25, -4.1302767588776824e-25, -4.1302767588776824e-25, -4.1302767588776824e-25
110283.97945939002, 9.618670463562012, -1.4650087480064632e-25, -1.4650087480064632e-25, 8.841245651245117, -1.4650087480064632e-25, -1.4650087480064632e-25, -1.4650087480064632e-25, -1.4650087480064632e-25
110283.98345939002, 9.49822998046875, 2.6652681341307356e-25, 2.6652681341307356e-25, 7.73895263671875, 2.6652681341307356e-25, 2.6652681341307356e-25, 2.6652681341307356e-25, 2.6652681341307356e-25
110283.98745939002, 6.088437557220459, 4.1302767588776824e-25, 4.1302767588776824e-25, 3.8336422443389893, 4.1302767588776824e-25, 4.1302767588776824e-25, 4.1302767588776824e-25, 4.1302767588776824e-25
110284.04380204901, 3.291642189025879, -4.1302767588776824e-25, -4.1302767588776824e-25, 0.6620306968688965, -4.1302767588776824e-25, -4.1302767588776824e-25, -4.1302767588776824e-25, -4.1302767588776824e-25
110284.04780204901, 5.08280611038208, -1.4650087480064632e-25, -1.4650087480064632e-25, 3.0948517322540283, -1.4650087480064632e-25, -1.4650087480064632e-25, -1.4650087480064632e-25, -1.4650087480064632e-25
110284.07180204902, 2.9481587409973145, -1.4650087480064632e-25, -1.4650087480064632e-25, -2.8066205978393555, -1.4650087480064632e-25, -1.4650087480064632e-25, -1.4650087480064632e-25, -1.4650087480064632e-25
110284.13930083101, 5.399847984313965, -4.1302767588776824e-25, -4.1302767588776824e-25, -4.2121663093566895, -4.1302767588776824e-25, -4.1302767588776824e-25, -4.1302767588776824e-25, -4.1302767588776824e-25
110284.22975104801, 10.915623664855957, -4.1302767588776824e-25, -4.1302767588776824e-25, 7.7991132736206055, -4.1302767588776824e-25, -4.1302767588776824e-25, -4.1302767588776824e-25, -4.1302767588776824e-25
110284.23375104801, 7.19366979598999, -1.4650087480064632e-25, -1.4650087480064632e-25, 2.315237522125244, -1.4650087480064632e-25, -1.4650087480064632e-25, -1.4650087480064632e-25, -1.4650087480064632e-25
110284.23775104801, 4.430434703826904, 2.6652681341307356e-25, 2.6652681341307356e-25, -2.1209707260131836, 2.6652681341307356e-25, 2.6652681341307356e-25, 2.6652681341307356e-25, 2.6652681341307356e-25
110284.24175104802, 7.811758518218994, 4.1302767588776824e-25, 4.1302767588776824e-25, 0.26890966296195984, 4.1302767588776824e-25, 4.1302767588776824e-25, 4.1302767588776824e-25, 4.1302767588776824e-25
110284.24575104802, 11.465453147888184, 1.4650087480064632e-25, 1.4650087480064632e-25, 3.693789005279541, 1.4650087480064632e-25, 1.4650087480064632e-25, 1.4650087480064632e-25, 1.4650087480064632e-25
110284.24975104802, 9.845755577087402, -2.6652681341307356e-25, -2.6652681341307356e-25, 1.9205378293991089, -2.6652681341307356e-25, -2.6652681341307356e-25, -2.6652681341307356e-25, -2.6652681341307356e-25
110284.25375104802, 7.521912097930908, -4.1302767588776824e-25, -4.1302767588776824e-25, -0.8832711577415466, -4.1302767588776824e-25, -4.1302767588776824e-25, -4.1302767588776824e-25, -4.1302767588776824e-25
110284.25775104802, 9.644877433776855, -1.4650087480064632e-25, -1.4650087480064632e-25, 0.8396024703979492, -1.4650087480064632e-25, -1.4650087480064632e-25, -1.4650087480064632e-25, -1.4650087480064632e-25
110284.26175104802, 12.060117721557617, 2.6652681341307356e-25, 2.6652681341307356e-25, 3.2786076068878174, 2.6652681341307356e-25, 2.6652681341307356e-25, 2.6652681341307356e-25, 2.6652681341307356e-25
110284.26575104802, 9.608466148376465, 4.1302767588776824e-25, 4.1302767588776824e-25, 1.041037678718567, 4.1302767588776824e-25, 4.1302767588776824e-25, 4.1302767588776824e-25, 4.1302767588776824e-25
110284.290779271, 3.5564401149749756, -4.1302767588776824e-25, -4.1302767588776824e-25, -2.097358226776123, -4.1302767588776824e-25, -4.1302767588776824e-25, -4.1302767588776824e-25, -4.1302767588776824e-25
110284.294779271, 7.745479583740234, -1.4650087480064632e-25, -1.4650087480064632e-25, 3.0924251079559326, -1.4650087480064632e-25, -1.4650087480064632e-25, -1.4650087480064632e-25, -1.4650087480064632e-25
110284.298779271, 8.150952339172363, 2.6652681341307356e-25, 2.6652681341307356e-25, 4.195642471313477, 2.6652681341307356e-25, 2.6652681341307356e-25, 2.6652681341307356e-25, 2.6652681341307356e-25
110284.302779271, 2.9718844890594482, 4.1302767588776824e-25, 4.1302767588776824e-25, -0.2767680883407593, 4.1302767588776824e-25, 4.1302767588776824e-25, 4.1302767588776824e-25, 4.1302767588776824e-25
110284.306779271, 0.4521297216415405, 1.4650087480064632e-25, 1.4650087480064632e-25, -1.875993013381958, 1.4650087480064632e-25, 1.4650087480064632e-25, 1.4650087480064632e-25, 1.4650087480064632e-25
110284.310779271, 3.448986053466797, -2.6652681341307356e-25, -2.6652681341307356e-25, 1.9784271717071533, -2.6652681341307356e-25, -2.6652681341307356e-25, -2.6652681341307356e-25, -2.6652681341307356e-25
110284.31477927101, 4.263145923614502, -4.1302767588776824e-25, -4.1302767588776824e-25, 3.3651182651519775, -4.1302767588776824e-25, -4.1302767588776824e-25, -4.1302767588776824e-25, -4.1302767588776824e-25
110284.39531160101, 0.04299631714820862, 2.6652681341307356e-25, 2.6652681341307356e-25, 2.605583906173706, 2.6652681341307356e-25, 2.6652681341307356e-25, 2.6652681341307356e-25, 2.6652681341307356e-25
110284.41531160101, 0.8560917377471924, -1.4650087480064632e-25, -1.4650087480064632e-25, 1.5095783472061157, -1.4650087480064632e-25, -1.4650087480064632e-25, -1.4650087480064632e-25, -1.4650087480064632e-25
110284.48775267701, 0.013128614984452724, -1.4650087480064632e-25, -1.4650087480064632e-25, -0.48423072695732117, -1.4650087480064632e-25, -1.4650087480064632e-25, -1.4650087480064632e-25, -1.4650087480064632e-25
110284.49175267702, 4.692525863647461, 2.6652681341307356e-25, 2.6652681341307356e-25, 4.181243896484375, 2.6652681341307356e-25, 2.6652681341307356e-25, 2.6652681341307356e-25, 2.6652681341307356e-25
110284.49575267702, 5.148439884185791, 4.1302767588776824e-25, 4.1302767588776824e-25, 4.379889488220215, 4.1302767588776824e-25, 4.1302767588776824e-25, 4.1302767588776824e-25, 4.1302767588776824e-25
110284.49975267702, 0.4951525330543518, 1.4650087480064632e-25, 1.4650087480064632e-25, -0.25507813692092896, 1.4650087480064632e-25, 1.4650087480064632e-25, 1.4650087480064632e-25, 1.4650087480064632e-25
110284.50775267702, 3.932767391204834, -4.1302767588776824e-25, -4.1302767588776824e-25, 3.779973030090332, -4.1302767588776824e-25, -4.1302767588776824e-25, -4.1302767588776824e-25, -4.1302767588776824e-25
110284.51175267702, 5.622549057006836, -1.4650087480064632e-25, -1.4650087480064632e-25, 5.828494548797607, -1.4650087480064632e-25, -1.4650087480064632e-25, -1.4650087480064632e-25, -1.4650087480064632e-25
110284.51575267702, 0.7831818461418152, 2.6652681341307356e-25, 2.6652681341307356e-25, 1.315167784690857, 2.6652681341307356e-25, 2.6652681341307356e-25, 2.6652681341307356e-25, 2.6652681341307356e-25
110284.57954813002, 0.481739342212677, 1.4650087480064632e-25, 1.4650087480064632e-25, -0.10897757858037949, 1.4650087480064632e-25, 1.4650087480064632e-25, 1.4650087480064632e-25, 1.4650087480064632e-25
110284.58354813002, 0.4409314692020416, -2.6652681341307356e-25, -2.6652681341307356e-25, -3.758735418319702, -2.6652681341307356e-25, -2.6652681341307356e-25, -2.6652681341307356e-25, -2.6652681341307356e-25
110284.58754813002, 0.8707374334335327, -4.1302767588776824e-25, -4.1302767588776824e-25, -3.87160062789917, -4.1302767588776824e-25, -4.1302767588776824e-25, -4.1302767588776824e-25, -4.1302767588776824e-25
110284.59154813002, 2.3822591304779053, -1.4650087480064632e-25, -1.4650087480064632e-25, -0.3289421498775482, -1.4650087480064632e-25, -1.4650087480064632e-25, -1.4650087480064632e-25, -1.4650087480064632e-25
110284.59554813002, 1.0227360725402832, 2.6652681341307356e-25, 2.6652681341307356e-25, -0.2735893428325653, 2.6652681341307356e-25, 2.6652681341307356e-25, 2.6652681341307356e-25, 2.6652681341307356e-25
110284.65393925301, 0.807479202747345, -4.1302767588776824e-25, -4.1302767588776824e-25, 2.5796070098876953, -4.1302767588776824e-25, -4.1302767588776824e-25, -4.1302767588776824e-25, -4.1302767588776824e-25
110284.66193925301, 14.75198745727539, 2.6652681341307356e-25, 2.6652681341307356e-25, 3.9206087589263916, 2.6652681341307356e-25, 2.6652681341307356e-25, 2.6652681341307356e-25, 2.6652681341307356e-25
110284.66593925301, 23.759496688842773, 4.1302767588776824e-25, 4.1302767588776824e-25, 0.4781133830547333, 4.1302767588776824e-25, 4.1302767588776824e-25, 4.1302767588776824e-25, 4.1302767588776824e-25
110284.66993925301, 14.170578002929688, 1.4650087480064632e-25, 1.4650087480064632e-25, 0.45650777220726013, 1.4650087480064632e-25, 1.4650087480064632e-25, 1.4650087480064632e-25, 1.4650087480064632e-25
110284.67393925301, 7.186676979064941, -2.6652681341307356e-25, -2.6652681341307356e-25, 3.1682698726654053, -2.6652681341307356e-25, -2.6652681341307356e-25, -2.6652681341307356e-25, -2.6652681341307356e-25
110284.67793925302, 13.00623893737793, -4.1302767588776824e-25, -4.1302767588776824e-25, 2.478314161300659, -4.1302767588776824e-25, -4.1302767588776824e-25, -4.1302767588776824e-25, -4.1302767588776824e-25
110284.68193925302, 13.038186073303223, -1.4650087480064632e-25, -1.4650087480064632e-25, -1.6333330869674683, -1.4650087480064632e-25, -1.4650087480064632e-25, -1.4650087480064632e-25, -1.4650087480064632e-25
110284.73587519, 12.092767715454102, 2.6652681341307356e-25, 2.6652681341307356e-25, 0.30497950315475464, 2.6652681341307356e-25, 2.6652681341307356e-25, 2.6652681341307356e-25, 2.6652681341307356e-25
110284.73987519, 13.039816856384277, 4.1302767588776824e-25, 4.1302767588776824e-25, -3.457944393157959, 4.1302767588776824e-25, 4.1302767588776824e-25, 4.1302767588776824e-25, 4.1302767588776824e-25
110284.75187519, 0.6053277254104614, -4.1302767588776824e-25, -4.1302767588776824e-25, -1.0120569467544556, -4.1302767588776824e-25, -4.1302767588776824e-25, -4.1302767588776824e-25, -4.1302767588776824e-25
110284.75587519, 12.882660865783691, -1.4650087480064632e-25, -1.4650087480064632e-25, -4.295664310455322, -1.4650087480064632e-25, -1.4650087480064632e-25, -1.4650087480064632e-25, -1.4650087480064632e-25
110284.75987519001, 6.244139671325684, 2.6652681341307356e-25, 2.6652681341307356e-25, -3.0385303497314453, 2.6652681341307356e-25, 2.6652681341307356e-25, 2.6652681341307356e-25, 2.6652681341307356e-25
110284.81494961101, 9.912025451660156, -4.1302767588776824e-25, -4.1302767588776824e-25, 0.44838398694992065, -4.1302767588776824e-25, -4.1302767588776824e-25, -4.1302767588776824e-25, -4.1302767588776824e-25
110284.81894961101, 14.80066204071045, -1.4650087480064632e-25, -1.4650087480064632e-25, -2.402214527130127, -1.4650087480064632e-25, -1.4650087480064632e-25, -1.4650087480064632e-25, -1.4650087480064632e-25
110284.82294961101, 8.928045272827148, 2.6652681341307356e-25, 2.6652681341307356e-25, 0.5858616828918457, 2.6652681341307356e-25, 2.6652681341307356e-25, 2.6652681341307356e-25, 2.6652681341307356e-25
110284.82694961102, 1.638161540031433, 4.1302767588776824e-25, 4.1302767588776824e-25, 4.221768856048584, 4.1302767588776824e-25, 4.1302767588776824e-25, 4.1302767588776824e-25, 4.1302767588776824e-25
110284.87120472401, 17.218914031982422, -4.1302767588776824e-25, -4.1302767588776824e-25, 3.5366079807281494, -4.1302767588776824e-25, -4.1302767588776824e-25, -4.1302767588776824e-25, -4.1302767588776824e-25
110284.87520472401, 21.978553771972656, -1.4650087480064632e-25, -1.4650087480064632e-25, 0.11943319439888, -1.4650087480064632e-25, -1.4650087480064632e-25, -1.4650087480064632e-25, -1.4650087480064632e-25
110284.87920472401, 8.483561515808105, 2.6652681341307356e-25, 2.6652681341307356e-25, -0.06368190050125122, 2.6652681341307356e-25, 2.6652681341307356e-25, 2.6652681341307356e-25, 2.6652681341307356e-25
110284.88720472401, 4.8493971824646, 1.4650087480064632e-25, 1.4650087480064632e-25, 4.005661964416504, 1.4650087480064632e-25, 1.4650087480064632e-25, 1.4650087480064632e-25, 1.4650087480064632e-25
110284.89120472402, 8.146810531616211, -2.6652681341307356e-25, -2.6652681341307356e-25, 0.13411451876163483, -2.6652681341307356e-25, -2.6652681341307356e-25, -2.6652681341307356e-25, -2.6652681341307356e-25
110284.90720472402, 11.434176445007324, 4.1302767588776824e-25, 4.1302767588776824e-25, -0.9178283214569092, 4.1302767588776824e-25, 4.1302767588776824e-25, 4.1302767588776824e-25, 4.1302767588776824e-25
110284.955256589, 11.268684387207031, -1.4650087480064632e-25, -1.4650087480064632e-25, -2.179093599319458, -1.4650087480064632e-25, -1.4650087480064632e-25, -1.4650087480064632e-25, -1.4650087480064632e-25
110284.959256589, 5.919015884399414, 2.6652681341307356e-25, 2.6652681341307356e-25, -1.5556544065475464, 2.6652681341307356e-25, 2.6652681341307356e-25, 2.6652681341307356e-25, 2.6652681341307356e-25
110284.98725658901, 1.8817063570022583, 4.1302767588776824e-25, 4.1302767588776824e-25, -2.323472023010254, 4.1302767588776824e-25, 4.1302767588776824e-25, 4.1302767588776824e-25, 4.1302767588776824e-25
110285.03252312801, 10.809869766235352, 2.6652681341307356e-25, 2.6652681341307356e-25, 0.72629314661026, 2.6652681341307356e-25, 2.6652681341307356e-25, 2.6652681341307356e-25, 2.6652681341307356e-25
110285.03652312802, 9.483742713928223, 4.1302767588776824e-25, 4.1302767588776824e-25, -2.085125684738159, 4.1302767588776824e-25, 4.1302767588776824e-25, 4.1302767588776824e-25, 4.1302767588776824e-25
110285.04852312802, 0.21611861884593964, -4.1302767588776824e-25, -4.1302767588776824e-25, 1.5318715572357178, -4.1302767588776824e-25, -4.1302767588776824e-25, -4.1302767588776824e-25, -4.1302767588776824e-25
110285.05252312802, 9.783679962158203, -1.4650087480064632e-25, -1.4650087480064632e-25, -1.8230297565460205, -1.4650087480064632e-25, -1.4650087480064632e-25, -1.4650087480064632e-25, -1.4650087480064632e-25
110285.05652312802, 9.626776695251465, 2.6652681341307356e-25, 2.6652681341307356e-25, -0.5117738842964172, 2.6652681341307356e-25, 2.6652681341307356e-25, 2.6652681341307356e-25, 2.6652681341307356e-25
110285.06052312802, 6.22243595123291, 4.1302767588776824e-25, 4.1302767588776824e-25, 3.202730655670166, 4.1302767588776824e-25, 4.1302767588776824e-25, 4.1302767588776824e-25, 4.1302767588776824e-25
110285.11638350601, 6.328435897827148, 4.1302767588776824e-25, 4.1302767588776824e-25, -2.7980685234069824, 4.1302767588776824e-25, 4.1302767588776824e-25, 4.1302767588776824e-25, 4.1302767588776824e-25
110285.13238350602, 5.994749546051025, -1.4650087480064632e-25, -1.4650087480064632e-25, 2.207507610321045, -1.4650087480064632e-25, -1.4650087480064632e-25, -1.4650087480064632e-25, -1.4650087480064632e-25
110285.13638350602, 12.822072982788086, 2.6652681341307356e-25, 2.6652681341307356e-25, -1.4338555335998535, 2.6652681341307356e-25, 2.6652681341307356e-25, 2.6652681341307356e-25, 2.6652681341307356e-25
110285.14038350602, 5.526378631591797, 4.1302767588776824e-25, 4.1302767588776824e-25, -0.5470480918884277, 4.1302767588776824e-25, 4.1302767588776824e-25, 4.1302767588776824e-25, 4.1302767588776824e-25
110285.193479148, 1.5397142171859741, 2.6652681341307356e-25, 2.6652681341307356e-25, 3.4754087924957275, 2.6652681341307356e-25, 2.6652681341307356e-25, 2.6652681341307356e-25, 2.6652681341307356e-25
110285.197479148, 16.219650268554688, 4.1302767588776824e-25, 4.1302767588776824e-25, 1.401802659034729, 4.1302767588776824e-25, 4.1302767588776824e-25, 4.1302767588776824e-25, 4.1302767588776824e-25
110285.201479148, 14.240084648132324, 1.4650087480064632e-25, 1.4650087480064632e-25, -0.9340294599533081, 1.4650087480064632e-25, 1.4650087480064632e-25, 1.4650087480064632e-25, 1.4650087480064632e-25
110285.213479148, 5.390617847442627, -1.4650087480064632e-25, -1.4650087480064632e-25, -0.003265183651819825, -1.4650087480064632e-25, -1.4650087480064632e-25, -1.4650087480064632e-25, -1.4650087480064632e-25
110285.217479148, 9.480813980102539, 2.6652681341307356e-25, 2.6652681341307356e-25, -2.8213469982147217, 2.6652681341307356e-25, 2.6652681341307356e-25, 2.6652681341307356e-25, 2.6652681341307356e-25
110285.22147914801, 0.6923577189445496, 4.1302767588776824e-25, 4.1302767588776824e-25, -1.0324125289916992, 4.1302767588776824e-25, 4.1302767588776824e-25, 4.1302767588776824e-25, 4.1302767588776824e-25
110285.29791203301, 6.407253265380859, 1.4650087480064632e-25, 1.4650087480064632e-25, -0.3757914900779724, 1.4650087480064632e-25, 1.4650087480064632e-25, 1.4650087480064632e-25, 1.4650087480064632e-25
110285.30191203301, 5.499244213104248, -2.6652681341307356e-25, -2.6652681341307356e-25, -1.6341643333435059, -2.6652681341307356e-25, -2.6652681341307356e-25, -2.6652681341307356e-25, -2.6652681341307356e-25
110285.31391203302, 9.077034950256348, 2.6652681341307356e-25, 2.6652681341307356e-25, 1.588577389717102, 2.6652681341307356e-25, 2.6652681341307356e-25, 2.6652681341307356e-25, 2.6652681341307356e-25
110285.31791203302, 8.742599487304688, 4.1302767588776824e-25, 4.1302767588776824e-25, -1.462716817855835, 4.1302767588776824e-25, 4.1302767588776824e-25, 4.1302767588776824e-25, 4.1302767588776824e-25
110285.37630129601, 1.6624679565429688, -1.4650087480064632e-25, -1.4650087480064632e-25, 2.1764590740203857, -1.4650087480064632e-25, -1.4650087480064632e-25, -1.4650087480064632e-25, -1.4650087480064632e-25
110285.38030129601, 8.912947654724121, 2.6652681341307356e-25, 2.6652681341307356e-25, -0.5905516743659973, 2.6652681341307356e-25, 2.6652681341307356e-25, 2.6652681341307356e-25, 2.6652681341307356e-25
110285.38430129601, 2.8596391677856445, 4.1302767588776824e-25, 4.1302767588776824e-25, -3.015781879425049, 4.1302767588776824e-25, 4.1302767588776824e-25, 4.1302767588776824e-25, 4.1302767588776824e-25
110285.39630129602, 5.086939334869385, -4.1302767588776824e-25, -4.1302767588776824e-25, -0.5680146813392639, -4.1302767588776824e-25, -4.1302767588776824e-25, -4.1302767588776824e-25, -4.1302767588776824e-25
110285.40030129602, 5.13198709487915, -1.4650087480064632e-25, -1.4650087480064632e-25, -2.899505615234375, -1.4650087480064632e-25, -1.4650087480064632e-25, -1.4650087480064632e-25, -1.4650087480064632e-25
110285.472514009, 10.67893123626709, -1.4650087480064632e-25, -1.4650087480064632e-25, -1.5339903831481934, -1.4650087480064632e-25, -1.4650087480064632e-25, -1.4650087480064632e-25, -1.4650087480064632e-25
110285.476514009, 3.1239213943481445, 2.6652681341307356e-25, 2.6652681341307356e-25, -2.605382204055786, 2.6652681341307356e-25, 2.6652681341307356e-25, 2.6652681341307356e-25, 2.6652681341307356e-25
110285.484514009, 0.9465426206588745, 1.4650087480064632e-25, 1.4650087480064632e-25, 3.4991254806518555, 1.4650087480064632e-25, 1.4650087480064632e-25, 1.4650087480064632e-25, 1.4650087480064632e-25
110285.488514009, 12.903039932250977, -2.6652681341307356e-25, -2.6652681341307356e-25, 0.10959590971469879, -2.6652681341307356e-25, -2.6652681341307356e-25, -2.6652681341307356e-25, -2.6652681341307356e-25
110285.492514009, 11.643903732299805, -4.1302767588776824e-25, -4.1302767588776824e-25, -2.5670390129089355, -4.1302767588776824e-25, -4.1302767588776824e-25, -4.1302767588776824e-25, -4.1302767588776824e-25
110285.496514009, 1.509560465812683, -1.4650087480064632e-25, -1.4650087480064632e-25, 0.20862486958503723, -1.4650087480064632e-25, -1.4650087480064632e-25, -1.4650087480064632e-25, -1.4650087480064632e-25
110285.50451400901, 0.735543429851532, 4.1302767588776824e-25, 4.1302767588776824e-25, 0.5023938417434692, 4.1302767588776824e-25, 4.1302767588776824e-25, 4.1302767588776824e-25, 4.1302767588776824e-25
110285.560354004, 1.8510881662368774, -4.1302767588776824e-25, -4.1302767588776824e-25, 3.39201021194458, -4.1302767588776824e-25, -4.1302767588776824e-25, -4.1302767588776824e-25, -4.1302767588776824e-25
110285.564354004, 8.274871826171875, -1.4650087480064632e-25, -1.4650087480064632e-25, 0.7509701251983643, -1.4650087480064632e-25, -1.4650087480064632e-25, -1.4650087480064632e-25, -1.4650087480064632e-25
110285.568354004, 0.4184054732322693, 2.6652681341307356e-25, 2.6652681341307356e-25, -1.1392930746078491, 2.6652681341307356e-25, 2.6652681341307356e-25, 2.6652681341307356e-25, 2.6652681341307356e-25
110285.580354004, 4.655954837799072, -2.6652681341307356e-25, -2.6652681341307356e-25, 0.3439694344997406, -2.6652681341307356e-25, -2.6652681341307356e-25, -2.6652681341307356e-25, -2.6652681341307356e-25
110285.58435400401, 4.87576150894165, -4.1302767588776824e-25, -4.1302767588776824e-25, -1.2815390825271606, -4.1302767588776824e-25, -4.1302767588776824e-25, -4.1302767588776824e-25, -4.1302767588776824e-25
110285.59235400401, 0.6263278126716614, 2.6652681341307356e-25, 2.6652681341307356e-25, 3.211113452911377, 2.6652681341307356e-25, 2.6652681341307356e-25, 2.6652681341307356e-25, 2.6652681341307356e-25
110285.59635400401, 11.097228050231934, 4.1302767588776824e-25, 4.1302767588776824e-25, 0.6496092081069946, 4.1302767588776824e-25, 4.1302767588776824e-25, 4.1302767588776824e-25, 4.1302767588776824e-25
110285.65202932301, 0.7193393111228943, -4.1302767588776824e-25, -4.1302767588776824e-25, -1.1068049669265747, -4.1302767588776824e-25, -4.1302767588776824e-25, -4.1302767588776824e-25, -4.1302767588776824e-25
110285.66802932302, 10.154224395751953, 1.4650087480064632e-25, 1.4650087480064632e-25, -1.3024423122406006, 1.4650087480064632e-25, 1.4650087480064632e-25, 1.4650087480064632e-25, 1.4650087480064632e-25
110285.67202932302, 12.246612548828125, -2.6652681341307356e-25, -2.6652681341307356e-25, -4.022548675537109, -2.6652681341307356e-25, -2.6652681341307356e-25, -2.6652681341307356e-25, -2.6652681341307356e-25
110285.67602932302, 0.25810375809669495, -4.1302767588776824e-25, -4.1302767588776824e-25, -1.8630590438842773, -4.1302767588776824e-25, -4.1302767588776824e-25, -4.1302767588776824e-25, -4.1302767588776824e-25
110285.70852642701, 1.2410061359405518, 2.6652681341307356e-25, 2.6652681341307356e-25, 1.8108774423599243, 2.6652681341307356e-25, 2.6652681341307356e-25, 2.6652681341307356e-25, 2.6652681341307356e-25
110285.71252642701, 7.175347328186035, 4.1302767588776824e-25, 4.1302767588776824e-25, -1.6427892446517944, 4.1302767588776824e-25, 4.1302767588776824e-25, 4.1302767588776824e-25, 4.1302767588776824e-25
110285.71652642702, 0.5546821355819702, 1.4650087480064632e-25, 1.4650087480064632e-25, -1.297664761543274, 1.4650087480064632e-25, 1.4650087480064632e-25, 1.4650087480064632e-25, 1.4650087480064632e-25
110285.802813905, 2.4361586570739746, -4.1302767588776824e-25, -4.1302767588776824e-25, -2.4888768196105957, -4.1302767588776824e-25, -4.1302767588776824e-25, -4.1302767588776824e-25, -4.1302767588776824e-25
110285.814813905, 2.8890156745910645, 4.1302767588776824e-25, 4.1302767588776824e-25, 2.317589044570923, 4.1302767588776824e-25, 4.1302767588776824e-25, 4.1302767588776824e-25, 4.1302767588776824e-25
110285.818813905, 9.213313102722168, 1.4650087480064632e-25, 1.4650087480064632e-25, -3.130002498626709, 1.4650087480064632e-25, 1.4650087480064632e-25, 1.4650087480064632e-25, 1.4650087480064632e-25
110285.822813905, 7.628898620605469, -2.6652681341307356e-25, -2.6652681341307356e-25, -4.006961345672607, -2.6652681341307356e-25, -2.6652681341307356e-25, -2.6652681341307356e-25, -2.6652681341307356e-25
110285.826813905, 3.38755464553833, -4.1302767588776824e-25, -4.1302767588776824e-25, 0.08673901110887527, -4.1302767588776824e-25, -4.1302767588776824e-25, -4.1302767588776824e-25, -4.1302767588776824e-25
110285.830813905, 0.22281770408153534, -1.4650087480064632e-25, -1.4650087480064632e-25, 1.8729091882705688, -1.4650087480064632e-25, -1.4650087480064632e-25, -1.4650087480064632e-25, -1.4650087480064632e-25
110285.90638339201, 9.985001564025879, -4.1302767588776824e-25, -4.1302767588776824e-25, -2.4785280227661133, -4.1302767588776824e-25, -4.1302767588776824e-25, -4.1302767588776824e-25, -4.1302767588776824e-25
110285.91038339201, 3.145831823348999, -1.4650087480064632e-25, -1.4650087480064632e-25, 1.4694018363952637, -1.4650087480064632e-25, -1.4650087480064632e-25, -1.4650087480064632e-25, -1.4650087480064632e-25
110285.91438339201, 0.9284512996673584, 2.6652681341307356e-25, 2.6652681341307356e-25, 0.46610063314437866, 2.6652681341307356e-25, 2.6652681341307356e-25, 2.6652681341307356e-25, 2.6652681341307356e-25
110285.93438339201, 1.7930947542190552, -1.4650087480064632e-25, -1.4650087480064632e-25, -1.4648436307907104, -1.4650087480064632e-25, -1.4650087480064632e-25, -1.4650087480064632e-25, -1.4650087480064632e-25
110286.01197095601, 1.1258063316345215, 2.6652681341307356e-25, 2.6652681341307356e-25, 2.453472375869751, 2.6652681341307356e-25, 2.6652681341307356e-25, 2.6652681341307356e-25, 2.6652681341307356e-25
110286.01597095601, 4.162837505340576, 4.1302767588776824e-25, 4.1302767588776824e-25, -1.07470703125, 4.1302767588776824e-25, 4.1302767588776824e-25, 4.1302767588776824e-25, 4.1302767588776824e-25
110286.03197095601, 9.312093734741211, -1.4650087480064632e-25, -1.4650087480064632e-25, -1.026137113571167, -1.4650087480064632e-25, -1.4650087480064632e-25, -1.4650087480064632e-25, -1.4650087480064632e-25
110286.03597095601, 8.148783683776855, 2.6652681341307356e-25, 2.6652681341307356e-25, -2.4210143089294434, 2.6652681341307356e-25, 2.6652681341307356e-25, 2.6652681341307356e-25, 2.6652681341307356e-25
110286.03997095602, 0.6694081425666809, 4.1302767588776824e-25, 4.1302767588776824e-25, 0.18484953045845032, 4.1302767588776824e-25, 4.1302767588776824e-25, 4.1302767588776824e-25, 4.1302767588776824e-25
110286.099277543, 0.28915125131607056, -1.4650087480064632e-25, -1.4650087480064632e-25, 1.0528159141540527, -1.4650087480064632e-25, -1.4650087480064632e-25, -1.4650087480064632e-25, -1.4650087480064632e-25
110286.103277543, 3.0327415466308594, 2.6652681341307356e-25, 2.6652681341307356e-25, -1.2992432117462158, 2.6652681341307356e-25, 2.6652681341307356e-25, 2.6652681341307356e-25, 2.6652681341307356e-25
110286.11927754301, 9.0790376663208, -4.1302767588776824e-25, -4.1302767588776824e-25, -0.8983888626098633, -4.1302767588776824e-25, -4.1302767588776824e-25, -4.1302767588776824e-25, -4.1302767588776824e-25
110286.12327754301, 2.0457918643951416, -1.4650087480064632e-25, -1.4650087480064632e-25, -0.7136120796203613, -1.4650087480064632e-25, -1.4650087480064632e-25, -1.4650087480064632e-25, -1.4650087480064632e-25
110286.18679440001, 4.849086761474609, -4.1302767588776824e-25, -4.1302767588776824e-25, -1.936478853225708, -4.1302767588776824e-25, -4.1302767588776824e-25, -4.1302767588776824e-25, -4.1302767588776824e-25
110286.20279440001, 1.909002661705017, 1.4650087480064632e-25, 1.4650087480064632e-25, -0.7119801640510559, 1.4650087480064632e-25, 1.4650087480064632e-25, 1.4650087480064632e-25, 1.4650087480064632e-25
110286.21479440002, 5.85888671875, -1.4650087480064632e-25, -1.4650087480064632e-25, 3.010138750076294, -1.4650087480064632e-25, -1.4650087480064632e-25, -1.4650087480064632e-25, -1.4650087480064632e-25
110286.21879440002, 9.374977111816406, 2.6652681341307356e-25, 2.6652681341307356e-25, -1.9346415996551514, 2.6652681341307356e-25, 2.6652681341307356e-25, 2.6652681341307356e-25, 2.6652681341307356e-25
110286.22279440002, 2.201749324798584, 4.1302767588776824e-25, 4.1302767588776824e-25, -3.5362954139709473, 4.1302767588776824e-25, 4.1302767588776824e-25, 4.1302767588776824e-25, 4.1302767588776824e-25
110286.28529425201, 2.808746337890625, 2.6652681341307356e-25, 2.6652681341307356e-25, 2.5812716484069824, 2.6652681341307356e-25, 2.6652681341307356e-25, 2.6652681341307356e-25, 2.6652681341307356e-25
110286.28929425201, 6.806070804595947, 4.1302767588776824e-25, 4.1302767588776824e-25, -2.2206947803497314, 4.1302767588776824e-25, 4.1302767588776824e-25, 4.1302767588776824e-25, 4.1302767588776824e-25
110286.30129425201, 4.977633476257324, -4.1302767588776824e-25, -4.1302767588776824e-25, 2.296635150909424, -4.1302767588776824e-25, -4.1302767588776824e-25, -4.1302767588776824e-25, -4.1302767588776824e-25
110286.30529425202, 9.265178680419922, -1.4650087480064632e-25, -1.4650087480064632e-25, -0.8577824234962463, -1.4650087480064632e-25, -1.4650087480064632e-25, -1.4650087480064632e-25, -1.4650087480064632e-25
110286.384861293, 0.11421580612659454, -4.1302767588776824e-25, -4.1302767588776824e-25, 0.6988418102264404, -4.1302767588776824e-25, -4.1302767588776824e-25, -4.1302767588776824e-25, -4.1302767588776824e-25
110286.388861293, 2.3295817375183105, -1.4650087480064632e-25, -1.4650087480064632e-25, -3.010683298110962, -1.4650087480064632e-25, -1.4650087480064632e-25, -1.4650087480064632e-25, -1.4650087480064632e-25
110286.400861293, 4.927927017211914, 1.4650087480064632e-25, 1.4650087480064632e-25, 1.6783095598220825, 1.4650087480064632e-25, 1.4650087480064632e-25, 1.4650087480064632e-25, 1.4650087480064632e-25
110286.404861293, 10.52764892578125, -2.6652681341307356e-25, -2.6652681341307356e-25, -1.9676743745803833, -2.6652681341307356e-25, -2.6652681341307356e-25, -2.6652681341307356e-25, -2.6652681341307356e-25
110286.408861293, 1.0513269901275635, -4.1302767588776824e-25, -4.1302767588776824e-25, -2.2273619174957275, -4.1302767588776824e-25, -4.1302767588776824e-25, -4.1302767588776824e-25, -4.1302767588776824e-25
110286.42086129301, 11.321676254272461, 4.1302767588776824e-25, 4.1302767588776824e-25, -0.7132722735404968, 4.1302767588776824e-25, 4.1302767588776824e-25, 4.1302767588776824e-25, 4.1302767588776824e-25
110286.48080390201, 3.7470762729644775, -1.4650087480064632e-25, -1.4650087480064632e-25, 0.5491910576820374, -1.4650087480064632e-25, -1.4650087480064632e-25, -1.4650087480064632e-25, -1.4650087480064632e-25
110286.49680390202, 3.335348129272461, -2.6652681341307356e-25, -2.6652681341307356e-25, 1.777398705482483, -2.6652681341307356e-25, -2.6652681341307356e-25, -2.6652681341307356e-25, -2.6652681341307356e-25
110286.50080390202, 6.1714582443237305, -4.1302767588776824e-25, -4.1302767588776824e-25, -2.2225892543792725, -4.1302767588776824e-25, -4.1302767588776824e-25, -4.1302767588776824e-25, -4.1302767588776824e-25
110286.60517481802, 4.805351257324219, -2.6652681341307356e-25, -2.6652681341307356e-25, -1.7734472751617432, -2.6652681341307356e-25, -2.6652681341307356e-25, -2.6652681341307356e-25, -2.6652681341307356e-25
110286.60917481802, 1.6668927669525146, -4.1302767588776824e-25, -4.1302767588776824e-25, -2.4012746810913086, -4.1302767588776824e-25, -4.1302767588776824e-25, -4.1302767588776824e-25, -4.1302767588776824e-25
110286.61717481802, 0.6795862913131714, 2.6652681341307356e-25, 2.6652681341307356e-25, 2.476468801498413, 2.6652681341307356e-25, 2.6652681341307356e-25, 2.6652681341307356e-25, 2.6652681341307356e-25
110286.62117481802, 3.928114414215088, 4.1302767588776824e-25, 4.1302767588776824e-25, -1.2421876192092896, 4.1302767588776824e-25, 4.1302767588776824e-25, 4.1302767588776824e-25, 4.1302767588776824e-25
110286.68290028001, 3.3077688217163086, -4.1302767588776824e-25, -4.1302767588776824e-25, 2.679856061935425, -4.1302767588776824e-25, -4.1302767588776824e-25, -4.1302767588776824e-25, -4.1302767588776824e-25
110286.68690028001, 8.330606460571289, -1.4650087480064632e-25, -1.4650087480064632e-25, -1.5912500619888306, -1.4650087480064632e-25, -1.4650087480064632e-25, -1.4650087480064632e-25, -1.4650087480064632e-25
110286.69090028001, 4.089367389678955, 2.6652681341307356e-25, 2.6652681341307356e-25, -1.9754440784454346, 2.6652681341307356e-25, 2.6652681341307356e-25, 2.6652681341307356e-25, 2.6652681341307356e-25
110286.69890028001, 2.0247738361358643, 1.4650087480064632e-25, 1.4650087480064632e-25, 2.731477975845337, 1.4650087480064632e-25, 1.4650087480064632e-25, 1.4650087480064632e-25, 1.4650087480064632e-25
110286.70290028001, 2.822981357574463, -2.6652681341307356e-25, -2.6652681341307356e-25, -0.3626299500465393, -2.6652681341307356e-25, -2.6652681341307356e-25, -2.6652681341307356e-25, -2.6652681341307356e-25
110286.71890028002, 6.999705791473389, 4.1302767588776824e-25, 4.1302767588776824e-25, -0.4167385697364807, 4.1302767588776824e-25, 4.1302767588776824e-25, 4.1302767588776824e-25, 4.1302767588776824e-25
110286.77013328901, 8.804533958435059, -4.1302767588776824e-25, -4.1302767588776824e-25, -2.2992236614227295, -4.1302767588776824e-25, -4.1302767588776824e-25, -4.1302767588776824e-25, -4.1302767588776824e-25
110286.77413328901, 0.13126809895038605, -1.4650087480064632e-25, -1.4650087480064632e-25, -2.2070608139038086, -1.4650087480064632e-25, -1.4650087480064632e-25, -1.4650087480064632e-25, -1.4650087480064632e-25
110286.78613328902, 2.8461194038391113, 1.4650087480064632e-25, 1.4650087480064632e-25, -2.708056926727295, 1.4650087480064632e-25, 1.4650087480064632e-25, 1.4650087480064632e-25, 1.4650087480064632e-25
110286.79813328902, 2.2840774059295654, -1.4650087480064632e-25, -1.4650087480064632e-25, 2.764763355255127, -1.4650087480064632e-25, -1.4650087480064632e-25, -1.4650087480064632e-25, -1.4650087480064632e-25
110286.80213328902, 10.922000885009766, 2.6652681341307356e-25, 2.6652681341307356e-25, -1.2341715097427368, 2.6652681341307356e-25, 2.6652681341307356e-25, 2.6652681341307356e-25, 2.6652681341307356e-25
110286.80613328902, 2.5732431411743164, 4.1302767588776824e-25, 4.1302767588776824e-25, -1.7429096698760986, 4.1302767588776824e-25, 4.1302767588776824e-25, 4.1302767588776824e-25, 4.1302767588776824e-25
110286.877058626, 0.38566380739212036, -1.4650087480064632e-25, -1.4650087480064632e-25, -0.03643811121582985, -1.4650087480064632e-25, -1.4650087480064632e-25, -1.4650087480064632e-25, -1.4650087480064632e-25
110286.88105862601, 1.4803367853164673, 2.6652681341307356e-25, 2.6652681341307356e-25, 2.9482381343841553, 2.6652681341307356e-25, 2.6652681341307356e-25, 2.6652681341307356e-25, 2.6652681341307356e-25
110286.88505862601, 4.677012920379639, 4.1302767588776824e-25, 4.1302767588776824e-25, 1.6944029331207275, 4.1302767588776824e-25, 4.1302767588776824e-25, 4.1302767588776824e-25, 4.1302767588776824e-25
110286.88905862601, 2.7714672088623047, 1.4650087480064632e-25, 1.4650087480064632e-25, -2.528250217437744, 1.4650087480064632e-25, 1.4650087480064632e-25, 1.4650087480064632e-25, 1.4650087480064632e-25
110286.90505862601, 6.4150824546813965, 2.6652681341307356e-25, 2.6652681341307356e-25, -1.1671134233474731, 2.6652681341307356e-25, 2.6652681341307356e-25, 2.6652681341307356e-25, 2.6652681341307356e-25
110286.90905862601, 9.457279205322266, 4.1302767588776824e-25, 4.1302767588776824e-25, -2.5917930603027344, 4.1302767588776824e-25, 4.1302767588776824e-25, 4.1302767588776824e-25, 4.1302767588776824e-25
110286.95809611301, 3.5238754749298096, -4.1302767588776824e-25, -4.1302767588776824e-25, 0.2787359952926636, -4.1302767588776824e-25, -4.1302767588776824e-25, -4.1302767588776824e-25, -4.1302767588776824e-25
110286.96609611301, 1.4410561323165894, 2.6652681341307356e-25, 2.6652681341307356e-25, 1.6654837131500244, 2.6652681341307356e-25, 2.6652681341307356e-25, 2.6652681341307356e-25, 2.6652681341307356e-25
110286.97009611301, 3.564893960952759, 4.1302767588776824e-25, 4.1302767588776824e-25, -3.3067150115966797, 4.1302767588776824e-25, 4.1302767588776824e-25, 4.1302767588776824e-25, 4.1302767588776824e-25
110286.98209611302, 2.2434334754943848, -4.1302767588776824e-25, -4.1302767588776824e-25, 2.839672565460205, -4.1302767588776824e-25, -4.1302767588776824e-25, -4.1302767588776824e-25, -4.1302767588776824e-25
110286.98609611302, 13.809154510498047, -1.4650087480064632e-25, -1.4650087480064632e-25, -0.8762316703796387, -1.4650087480064632e-25, -1.4650087480064632e-25, -1.4650087480064632e-25, -1.4650087480064632e-25
110286.99009611302, 8.667863845825195, 2.6652681341307356e-25, 2.6652681341307356e-25, -2.3890628814697266, 2.6652681341307356e-25, 2.6652681341307356e-25, 2.6652681341307356e-25, 2.6652681341307356e-25
110287.063864494, 7.928557395935059, -4.1302767588776824e-25, -4.1302767588776824e-25, 0.9610378742218018, -4.1302767588776824e-25, -4.1302767588776824e-25, -4.1302767588776824e-25, -4.1302767588776824e-25
110287.067864494, 5.882429122924805, -1.4650087480064632e-25, -1.4650087480064632e-25, -2.6529178619384766, -1.4650087480064632e-25, -1.4650087480064632e-25, -1.4650087480064632e-25, -1.4650087480064632e-25
110287.08786449401, 1.738122582435608, -4.1302767588776824e-25, -4.1302767588776824e-25, -2.1297144889831543, -4.1302767588776824e-25, -4.1302767588776824e-25, -4.1302767588776824e-25, -4.1302767588776824e-25
110287.09986449401, 2.370260715484619, 4.1302767588776824e-25, 4.1302767588776824e-25, -0.742321789264679, 4.1302767588776824e-25, 4.1302767588776824e-25, 4.1302767588776824e-25, 4.1302767588776824e-25
110287.173282161, 12.72552490234375, -4.1302767588776824e-25, -4.1302767588776824e-25, -1.4599169492721558, -4.1302767588776824e-25, -4.1302767588776824e-25, -4.1302767588776824e-25, -4.1302767588776824e-25
110287.177282161, 1.1610636711120605, -1.4650087480064632e-25, -1.4650087480064632e-25, -1.4894200563430786, -1.4650087480064632e-25, -1.4650087480064632e-25, -1.4650087480064632e-25, -1.4650087480064632e-25
110287.18528216101, 5.295426845550537, 4.1302767588776824e-25, 4.1302767588776824e-25, 2.398155689239502, 4.1302767588776824e-25, 4.1302767588776824e-25, 4.1302767588776824e-25, 4.1302767588776824e-25
110287.18928216101, 10.74850845336914, 1.4650087480064632e-25, 1.4650087480064632e-25, -2.1447324752807617, 1.4650087480064632e-25, 1.4650087480064632e-25, 1.4650087480064632e-25, 1.4650087480064632e-25
110287.19328216101, 4.236050605773926, -2.6652681341307356e-25, -2.6652681341307356e-25, -3.7235355377197266, -2.6652681341307356e-25, -2.6652681341307356e-25, -2.6652681341307356e-25, -2.6652681341307356e-25
110287.20528216101, 2.9258522987365723, 2.6652681341307356e-25, 2.6652681341307356e-25, -0.08316049724817276, 2.6652681341307356e-25, 2.6652681341307356e-25, 2.6652681341307356e-25, 2.6652681341307356e-25
110287.20928216101, 2.161421298980713, 4.1302767588776824e-25, 4.1302767588776824e-25, -1.8754279613494873, 4.1302767588776824e-25, 4.1302767588776824e-25, 4.1302767588776824e-25, 4.1302767588776824e-25
110287.30343838202, 4.976583480834961, -1.4650087480064632e-25, -1.4650087480064632e-25, 1.6380679607391357, -1.4650087480064632e-25, -1.4650087480064632e-25, -1.4650087480064632e-25, -1.4650087480064632e-25
110287.390957925, 1.754227876663208, 4.1302767588776824e-25, 4.1302767588776824e-25, -4.2447710037231445, 4.1302767588776824e-25, 4.1302767588776824e-25, 4.1302767588776824e-25, 4.1302767588776824e-25
110287.402957925, 2.1708321571350098, -4.1302767588776824e-25, -4.1302767588776824e-25, 0.27209416031837463, -4.1302767588776824e-25, -4.1302767588776824e-25, -4.1302767588776824e-25, -4.1302767588776824e-25
110287.406957925, 2.1820716857910156, -1.4650087480064632e-25, -1.4650087480064632e-25, -2.6907851696014404, -1.4650087480064632e-25, -1.4650087480064632e-25, -1.4650087480064632e-25, -1.4650087480064632e-25
110287.441160139, 5.534019470214844, 2.6652681341307356e-25, 2.6652681341307356e-25, 3.1567633152008057, 2.6652681341307356e-25, 2.6652681341307356e-25, 2.6652681341307356e-25, 2.6652681341307356e-25
110287.445160139, 15.4984769821167, 4.1302767588776824e-25, 4.1302767588776824e-25, -0.564924418926239, 4.1302767588776824e-25, 4.1302767588776824e-25, 4.1302767588776824e-25, 4.1302767588776824e-25
110287.449160139, 5.978847503662109, 1.4650087480064632e-25, 1.4650087480064632e-25, -1.3365373611450195, 1.4650087480064632e-25, 1.4650087480064632e-25, 1.4650087480064632e-25, 1.4650087480064632e-25
110287.457160139, 1.051116943359375, -4.1302767588776824e-25, -4.1302767588776824e-25, 1.5621249675750732, -4.1302767588776824e-25, -4.1302767588776824e-25, -4.1302767588776824e-25, -4.1302767588776824e-25
110287.461160139, 10.433466911315918, -1.4650087480064632e-25, -1.4650087480064632e-25, -1.296011209487915, -1.4650087480064632e-25, -1.4650087480064632e-25, -1.4650087480064632e-25, -1.4650087480064632e-25
110287.465160139, 8.79896068572998, 2.6652681341307356e-25, 2.6652681341307356e-25, -1.5977269411087036, 2.6652681341307356e-25, 2.6652681341307356e-25, 2.6652681341307356e-25, 2.6652681341307356e-25
110287.46916013901, 2.638360023498535, 4.1302767588776824e-25, 4.1302767588776824e-25, 1.4166895151138306, 4.1302767588776824e-25, 4.1302767588776824e-25, 4.1302767588776824e-25, 4.1302767588776824e-25
110287.51630327001, 1.4123440980911255, -1.4650087480064632e-25, -1.4650087480064632e-25, 0.26057741045951843, -1.4650087480064632e-25, -1.4650087480064632e-25, -1.4650087480064632e-25, -1.4650087480064632e-25
110287.52030327001, 1.3619459867477417, 2.6652681341307356e-25, 2.6652681341307356e-25, -2.0029091835021973, 2.6652681341307356e-25, 2.6652681341307356e-25, 2.6652681341307356e-25, 2.6652681341307356e-25
110287.53230327001, 1.5621135234832764, -2.6652681341307356e-25, -2.6652681341307356e-25, 1.9139331579208374, -2.6652681341307356e-25, -2.6652681341307356e-25, -2.6652681341307356e-25, -2.6652681341307356e-25
110287.53630327001, 6.916877269744873, -4.1302767588776824e-25, -4.1302767588776824e-25, -2.0153868198394775, -4.1302767588776824e-25, -4.1302767588776824e-25, -4.1302767588776824e-25, -4.1302767588776824e-25
110287.54830327001, 1.387803077697754, 4.1302767588776824e-25, 4.1302767588776824e-25, 2.1891372203826904, 4.1302767588776824e-25, 4.1302767588776824e-25, 4.1302767588776824e-25, 4.1302767588776824e-25
110287.56616480701, 0.8456281423568726, -4.1302767588776824e-25, -4.1302767588776824e-25, 0.4774189591407776, -4.1302767588776824e-25, -4.1302767588776824e-25, -4.1302767588776824e-25, -4.1302767588776824e-25
110287.57016480701, 6.403149127960205, -1.4650087480064632e-25, -1.4650087480064632e-25, -2.3731906414031982, -1.4650087480064632e-25, -1.4650087480064632e-25, -1.4650087480064632e-25, -1.4650087480064632e-25
110287.58616480701, 3.2834112644195557, -2.6652681341307356e-25, -2.6652681341307356e-25, 0.08093317598104477, -2.6652681341307356e-25, -2.6652681341307356e-25, -2.6652681341307356e-25, -2.6652681341307356e-25
110287.60216480702, 4.515856742858887, 4.1302767588776824e-25, 4.1302767588776824e-25, -1.1845433712005615, 4.1302767588776824e-25, 4.1302767588776824e-25, 4.1302767588776824e-25, 4.1302767588776824e-25
110287.65146803, 0.4540663957595825, 2.6652681341307356e-25, 2.6652681341307356e-25, 1.6253857612609863, 2.6652681341307356e-25, 2.6652681341307356e-25, 2.6652681341307356e-25, 2.6652681341307356e-25
110287.65546803, 9.08239459991455, 4.1302767588776824e-25, 4.1302767588776824e-25, -1.2707370519638062, 4.1302767588776824e-25, 4.1302767588776824e-25, 4.1302767588776824e-25, 4.1302767588776824e-25
110287.65946803, 4.321633338928223, 1.4650087480064632e-25, 1.4650087480064632e-25, -2.0940067768096924, 1.4650087480064632e-25, 1.4650087480064632e-25, 1.4650087480064632e-25, 1.4650087480064632e-25
110287.67146803, 5.275660514831543, -1.4650087480064632e-25, -1.4650087480064632e-25, -2.4383156299591064, -1.4650087480064632e-25, -1.4650087480064632e-25, -1.4650087480064632e-25, -1.4650087480064632e-25
110287.67546803001, 5.531553745269775, 2.6652681341307356e-25, 2.6652681341307356e-25, -3.540928840637207, 2.6652681341307356e-25, 2.6652681341307356e-25, 2.6652681341307356e-25, 2.6652681341307356e-25
110287.67946803001, 2.2335751056671143, 4.1302767588776824e-25, 4.1302767588776824e-25, -0.28037986159324646, 4.1302767588776824e-25, 4.1302767588776824e-25, 4.1302767588776824e-25, 4.1302767588776824e-25
110287.75476927601, 5.879750728607178, -1.4650087480064632e-25, -1.4650087480064632e-25, 0.15322473645210266, -1.4650087480064632e-25, -1.4650087480064632e-25, -1.4650087480064632e-25, -1.4650087480064632e-25
110287.75876927601, 1.8515677452087402, 2.6652681341307356e-25, 2.6652681341307356e-25, -0.8803949952125549, 2.6652681341307356e-25, 2.6652681341307356e-25, 2.6652681341307356e-25, 2.6652681341307356e-25
110287.80231351401, 3.7454404830932617, -4.1302767588776824e-25, -4.1302767588776824e-25, -0.04349110648036003, -4.1302767588776824e-25, -4.1302767588776824e-25, -4.1302767588776824e-25, -4.1302767588776824e-25
110287.80631351401, 0.7711853981018066, -1.4650087480064632e-25, -1.4650087480064632e-25, -2.3163340091705322, -1.4650087480064632e-25, -1.4650087480064632e-25, -1.4650087480064632e-25, -1.4650087480064632e-25
110287.81831351401, 2.835742712020874, 1.4650087480064632e-25, 1.4650087480064632e-25, 0.7872531414031982, 1.4650087480064632e-25, 1.4650087480064632e-25, 1.4650087480064632e-25, 1.4650087480064632e-25
110287.83431351402, 11.684432029724121, 2.6652681341307356e-25, 2.6652681341307356e-25, 1.1662921905517578, 2.6652681341307356e-25, 2.6652681341307356e-25, 2.6652681341307356e-25, 2.6652681341307356e-25
110287.83831351402, 18.291400909423828, 4.1302767588776824e-25, 4.1302767588776824e-25, -2.8839478492736816, 4.1302767588776824e-25, 4.1302767588776824e-25, 4.1302767588776824e-25, 4.1302767588776824e-25
110287.89581302, 2.2800910472869873, 2.6652681341307356e-25, 2.6652681341307356e-25, 2.862091541290283, 2.6652681341307356e-25, 2.6652681341307356e-25, 2.6652681341307356e-25, 2.6652681341307356e-25
110287.89981302, 3.0258805751800537, 4.1302767588776824e-25, 4.1302767588776824e-25, 0.3082916736602783, 4.1302767588776824e-25, 4.1302767588776824e-25, 4.1302767588776824e-25, 4.1302767588776824e-25
110287.91581302001, 9.146291732788086, -1.4650087480064632e-25, -1.4650087480064632e-25, 1.7349343299865723, -1.4650087480064632e-25, -1.4650087480064632e-25, -1.4650087480064632e-25, -1.4650087480064632e-25
110287.91981302001, 10.430115699768066, 2.6652681341307356e-25, 2.6652681341307356e-25, -1.1037964820861816, 2.6652681341307356e-25, 2.6652681341307356e-25, 2.6652681341307356e-25, 2.6652681341307356e-25
110287.96785342801, 1.5947554111480713, -4.1302767588776824e-25, -4.1302767588776824e-25, 5.014835834503174, -4.1302767588776824e-25, -4.1302767588776824e-25, -4.1302767588776824e-25, -4.1302767588776824e-25
110287.97185342801, 12.021760940551758, -1.4650087480064632e-25, -1.4650087480064632e-25, 1.849884033203125, -1.4650087480064632e-25, -1.4650087480064632e-25, -1.4650087480064632e-25, -1.4650087480064632e-25
110287.97585342801, 6.586122989654541, 2.6652681341307356e-25, 2.6652681341307356e-25, -0.7977793216705322, 2.6652681341307356e-25, 2.6652681341307356e-25, 2.6652681341307356e-25, 2.6652681341307356e-25
110287.98385342801, 0.04792797192931175, 1.4650087480064632e-25, 1.4650087480064632e-25, 1.9613020420074463, 1.4650087480064632e-25, 1.4650087480064632e-25, 1.4650087480064632e-25, 1.4650087480064632e-25
110287.98785342801, 8.301806449890137, -2.6652681341307356e-25, -2.6652681341307356e-25, -1.534973382949829, -2.6652681341307356e-25, -2.6652681341307356e-25, -2.6652681341307356e-25, -2.6652681341307356e-25
110287.99185342802, 7.5971856117248535, -4.1302767588776824e-25, -4.1302767588776824e-25, -3.753053903579712, -4.1302767588776824e-25, -4.1302767588776824e-25, -4.1302767588776824e-25, -4.1302767588776824e-25
110287.99585342802, 0.9920029640197754, -1.4650087480064632e-25, -1.4650087480064632e-25, 0.11835868656635284, -1.4650087480064632e-25, -1.4650087480064632e-25, -1.4650087480064632e-25, -1.4650087480064632e-25
110288.00385342802, 0.4673440158367157, 4.1302767588776824e-25, 4.1302767588776824e-25, 1.5994137525558472, 4.1302767588776824e-25, 4.1302767588776824e-25, 4.1302767588776824e-25, 4.1302767588776824e-25
110288.05505182, 2.542142868041992, -4.1302767588776824e-25, -4.1302767588776824e-25, -2.0577173233032227, -4.1302767588776824e-25, -4.1302767588776824e-25, -4.1302767588776824e-25, -4.1302767588776824e-25
110288.06305182, 0.3310399651527405, 2.6652681341307356e-25, 2.6652681341307356e-25, 0.9533836841583252, 2.6652681341307356e-25, 2.6652681341307356e-25, 2.6652681341307356e-25, 2.6652681341307356e-25
110288.06705182, 5.89396333694458, 4.1302767588776824e-25, 4.1302767588776824e-25, -2.628512382507324, 4.1302767588776824e-25, 4.1302767588776824e-25, 4.1302767588776824e-25, 4.1302767588776824e-25
110288.07105182, 3.7132527828216553, 1.4650087480064632e-25, 1.4650087480064632e-25, -4.896187782287598, 1.4650087480064632e-25, 1.4650087480064632e-25, 1.4650087480064632e-25, 1.4650087480064632e-25
110288.08305182001, 3.968505620956421, -1.4650087480064632e-25, -1.4650087480064632e-25, -1.3835595846176147, -1.4650087480064632e-25, -1.4650087480064632e-25, -1.4650087480064632e-25, -1.4650087480064632e-25
110288.08705182001, 4.04033899307251, 2.6652681341307356e-25, 2.6652681341307356e-25, -5.220429420471191, 2.6652681341307356e-25, 2.6652681341307356e-25, 2.6652681341307356e-25, 2.6652681341307356e-25
110288.15300326001, 0.23365111649036407, 2.6652681341307356e-25, 2.6652681341307356e-25, 0.6532028317451477, 2.6652681341307356e-25, 2.6652681341307356e-25, 2.6652681341307356e-25, 2.6652681341307356e-25
110288.16500326002, 0.4946261942386627, -2.6652681341307356e-25, -2.6652681341307356e-25, 3.4879274368286133, -2.6652681341307356e-25, -2.6652681341307356e-25, -2.6652681341307356e-25, -2.6652681341307356e-25
110288.16900326002, 4.6042046546936035, -4.1302767588776824e-25, -4.1302767588776824e-25, -0.4316938519477844, -4.1302767588776824e-25, -4.1302767588776824e-25, -4.1302767588776824e-25, -4.1302767588776824e-25
110288.17300326002, 0.5494306683540344, -1.4650087480064632e-25, -1.4650087480064632e-25, -3.919670820236206, -1.4650087480064632e-25, -1.4650087480064632e-25, -1.4650087480064632e-25, -1.4650087480064632e-25
110288.231659322, 2.6397387981414795, -4.1302767588776824e-25, -4.1302767588776824e-25, -1.5316286087036133, -4.1302767588776824e-25, -4.1302767588776824e-25, -4.1302767588776824e-25, -4.1302767588776824e-25
110288.26365932201, 2.055601119995117, 2.6652681341307356e-25, 2.6652681341307356e-25, 0.7546513676643372, 2.6652681341307356e-25, 2.6652681341307356e-25, 2.6652681341307356e-25, 2.6652681341307356e-25
110288.26765932201, 1.458385944366455, 4.1302767588776824e-25, 4.1302767588776824e-25, -1.8106298446655273, 4.1302767588776824e-25, 4.1302767588776824e-25, 4.1302767588776824e-25, 4.1302767588776824e-25
110288.31127284, 0.2785784900188446, -1.4650087480064632e-25, -1.4650087480064632e-25, 2.950197458267212, -1.4650087480064632e-25, -1.4650087480064632e-25, -1.4650087480064632e-25, -1.4650087480064632e-25
110288.31527284, 5.167924404144287, 2.6652681341307356e-25, 2.6652681341307356e-25, 2.6492950916290283, 2.6652681341307356e-25, 2.6652681341307356e-25, 2.6652681341307356e-25, 2.6652681341307356e-25
110288.31927284, 5.824099540710449, 4.1302767588776824e-25, 4.1302767588776824e-25, -1.7455750703811646, 4.1302767588776824e-25, 4.1302767588776824e-25, 4.1302767588776824e-25, 4.1302767588776824e-25
110288.32327284, 0.8517310619354248, 1.4650087480064632e-25, 1.4650087480064632e-25, -2.208343267440796, 1.4650087480064632e-25, 1.4650087480064632e-25, 1.4650087480064632e-25, 1.4650087480064632e-25
110288.33127284, 0.5283207297325134, -4.1302767588776824e-25, -4.1302767588776824e-25, 3.265817880630493, -4.1302767588776824e-25, -4.1302767588776824e-25, -4.1302767588776824e-25, -4.1302767588776824e-25
110288.40473852401, 3.344054937362671, 2.6652681341307356e-25, 2.6652681341307356e-25, 1.6736935377120972, 2.6652681341307356e-25, 2.6652681341307356e-25, 2.6652681341307356e-25, 2.6652681341307356e-25
110288.40873852401, 4.555360317230225, 4.1302767588776824e-25, 4.1302767588776824e-25, -1.8551340103149414, 4.1302767588776824e-25, 4.1302767588776824e-25, 4.1302767588776824e-25, 4.1302767588776824e-25
110288.42473852402, 4.511667251586914, -1.4650087480064632e-25, -1.4650087480064632e-25, -2.2149782180786133, -1.4650087480064632e-25, -1.4650087480064632e-25, -1.4650087480064632e-25, -1.4650087480064632e-25
110288.42873852402, 2.725742816925049, 2.6652681341307356e-25, 2.6652681341307356e-25, -2.720883846282959, 2.6652681341307356e-25, 2.6652681341307356e-25, 2.6652681341307356e-25, 2.6652681341307356e-25
110288.46884084701, 3.5497524738311768, 1.4650087480064632e-25, 1.4650087480064632e-25, 0.6384446024894714, 1.4650087480064632e-25, 1.4650087480064632e-25, 1.4650087480064632e-25, 1.4650087480064632e-25
110288.47284084701, 5.9598307609558105, -2.6652681341307356e-25, -2.6652681341307356e-25, -1.4350346326828003, -2.6652681341307356e-25, -2.6652681341307356e-25, -2.6652681341307356e-25, -2.6652681341307356e-25
110288.47684084701, 1.6975455284118652, -4.1302767588776824e-25, -4.1302767588776824e-25, 1.4001103639602661, -4.1302767588776824e-25, -4.1302767588776824e-25, -4.1302767588776824e-25, -4.1302767588776824e-25
110288.48484084701, 0.125331848859787, 2.6652681341307356e-25, 2.6652681341307356e-25, 1.6151633262634277, 2.6652681341307356e-25, 2.6652681341307356e-25, 2.6652681341307356e-25, 2.6652681341307356e-25
110288.48884084701, 1.328231692314148, 4.1302767588776824e-25, 4.1302767588776824e-25, -2.1026999950408936, 4.1302767588776824e-25, 4.1302767588776824e-25, 4.1302767588776824e-25, 4.1302767588776824e-25
110288.53851167201, 4.101844787597656, -4.1302767588776824e-25, -4.1302767588776824e-25, -0.8897914290428162, -4.1302767588776824e-25, -4.1302767588776824e-25, -4.1302767588776824e-25, -4.1302767588776824e-25
110288.54251167201, 1.1805106401443481, -1.4650087480064632e-25, -1.4650087480064632e-25, -2.2668259143829346, -1.4650087480064632e-25, -1.4650087480064632e-25, -1.4650087480064632e-25, -1.4650087480064632e-25
110288.54651167202, 0.7368723750114441, 2.6652681341307356e-25, 2.6652681341307356e-25, 0.8550891280174255, 2.6652681341307356e-25, 2.6652681341307356e-25, 2.6652681341307356e-25, 2.6652681341307356e-25
110288.55051167202, 8.643387794494629, 4.1302767588776824e-25, 4.1302767588776824e-25, 1.5740137100219727, 4.1302767588776824e-25, 4.1302767588776824e-25, 4.1302767588776824e-25, 4.1302767588776824e-25
110288.55451167202, 13.374189376831055, 1.4650087480064632e-25, 1.4650087480064632e-25, -2.343214750289917, 1.4650087480064632e-25, 1.4650087480064632e-25, 1.4650087480064632e-25, 1.4650087480064632e-25
110288.55851167202, 7.194575309753418, -2.6652681341307356e-25, -2.6652681341307356e-25, -4.049175262451172, -2.6652681341307356e-25, -2.6652681341307356e-25, -2.6652681341307356e-25, -2.6652681341307356e-25
110288.57051167202, 0.6871586441993713, 2.6652681341307356e-25, 2.6652681341307356e-25, 0.5265195965766907, 2.6652681341307356e-25, 2.6652681341307356e-25, 2.6652681341307356e-25, 2.6652681341307356e-25
110288.613000148, 9.664567947387695, -4.1302767588776824e-25, -4.1302767588776824e-25, -3.765183210372925, -4.1302767588776824e-25, -4.1302767588776824e-25, -4.1302767588776824e-25, -4.1302767588776824e-25
110288.617000148, 0.8302703499794006, -1.4650087480064632e-25, -1.4650087480064632e-25, -2.872469663619995, -1.4650087480064632e-25, -1.4650087480064632e-25, -1.4650087480064632e-25, -1.4650087480064632e-25
110288.62900014801, 3.163994550704956, 1.4650087480064632e-25, 1.4650087480064632e-25, -3.8591175079345703, 1.4650087480064632e-25, 1.4650087480064632e-25, 1.4650087480064632e-25, 1.4650087480064632e-25
110288.63300014801, 2.2545719146728516, -2.6652681341307356e-25, -2.6652681341307356e-25, -3.5898048877716064, -2.6652681341307356e-25, -2.6652681341307356e-25, -2.6652681341307356e-25, -2.6652681341307356e-25
110288.691725244, 15.129304885864258, -1.4650087480064632e-25, -1.4650087480064632e-25, 2.116905689239502, -1.4650087480064632e-25, -1.4650087480064632e-25, -1.4650087480064632e-25, -1.4650087480064632e-25
110288.695725244, 17.049617767333984, 2.6652681341307356e-25, 2.6652681341307356e-25, -1.2837016582489014, 2.6652681341307356e-25, 2.6652681341307356e-25, 2.6652681341307356e-25, 2.6652681341307356e-25
110288.699725244, 5.34477424621582, 4.1302767588776824e-25, 4.1302767588776824e-25, -0.15883557498455048, 4.1302767588776824e-25, 4.1302767588776824e-25, 4.1302767588776824e-25, 4.1302767588776824e-25
110288.703725244, 0.07181892544031143, 1.4650087480064632e-25, 1.4650087480064632e-25, 2.6474554538726807, 1.4650087480064632e-25, 1.4650087480064632e-25, 1.4650087480064632e-25, 1.4650087480064632e-25
110288.707725244, 4.271602630615234, -2.6652681341307356e-25, -2.6652681341307356e-25, 1.1991957426071167, -2.6652681341307356e-25, -2.6652681341307356e-25, -2.6652681341307356e-25, -2.6652681341307356e-25
110288.71172524401, 2.043200731277466, -4.1302767588776824e-25, -4.1302767588776824e-25, -1.7953170537948608, -4.1302767588776824e-25, -4.1302767588776824e-25, -4.1302767588776824e-25, -4.1302767588776824e-25
110288.72372524401, 7.757765293121338, 4.1302767588776824e-25, 4.1302767588776824e-25, 2.446781873703003, 4.1302767588776824e-25, 4.1302767588776824e-25, 4.1302767588776824e-25, 4.1302767588776824e-25
110288.779034784, 9.087224960327148, -1.4650087480064632e-25, -1.4650087480064632e-25, -4.162298202514648, -1.4650087480064632e-25, -1.4650087480064632e-25, -1.4650087480064632e-25, -1.4650087480064632e-25
110288.783034784, 5.6491379737854, 2.6652681341307356e-25, 2.6652681341307356e-25, -6.208855628967285, 2.6652681341307356e-25, 2.6652681341307356e-25, 2.6652681341307356e-25, 2.6652681341307356e-25
110288.79903478401, 1.5099364519119263, -4.1302767588776824e-25, -4.1302767588776824e-25, -1.3306422233581543, -4.1302767588776824e-25, -4.1302767588776824e-25, -4.1302767588776824e-25, -4.1302767588776824e-25
110288.81103478401, 7.924544334411621, 4.1302767588776824e-25, 4.1302767588776824e-25, 0.18051619827747345, 4.1302767588776824e-25, 4.1302767588776824e-25, 4.1302767588776824e-25, 4.1302767588776824e-25
110288.88510394901, 7.397789001464844, 4.1302767588776824e-25, 4.1302767588776824e-25, -0.5012199878692627, 4.1302767588776824e-25, 4.1302767588776824e-25, 4.1302767588776824e-25, 4.1302767588776824e-25
110288.88910394901, 10.132726669311523, 1.4650087480064632e-25, 1.4650087480064632e-25, -2.8703880310058594, 1.4650087480064632e-25, 1.4650087480064632e-25, 1.4650087480064632e-25, 1.4650087480064632e-25
110288.89310394901, 3.4602043628692627, -2.6652681341307356e-25, -2.6652681341307356e-25, 0.12587083876132965, -2.6652681341307356e-25, -2.6652681341307356e-25, -2.6652681341307356e-25, -2.6652681341307356e-25
110288.89710394901, 1.6777863502502441, -4.1302767588776824e-25, -4.1302767588776824e-25, 3.2876930236816406, -4.1302767588776824e-25, -4.1302767588776824e-25, -4.1302767588776824e-25, -4.1302767588776824e-25
110288.90110394901, 3.9336273670196533, -1.4650087480064632e-25, -1.4650087480064632e-25, 0.9384199976921082, -1.4650087480064632e-25, -1.4650087480064632e-25, -1.4650087480064632e-25, -1.4650087480064632e-25
110288.95772154801, 6.090002059936523, -4.1302767588776824e-25, -4.1302767588776824e-25, -1.0512481927871704, -4.1302767588776824e-25, -4.1302767588776824e-25, -4.1302767588776824e-25, -4.1302767588776824e-25
110288.96172154801, 1.5213825702667236, -1.4650087480064632e-25, -1.4650087480064632e-25, -3.0317914485931396, -1.4650087480064632e-25, -1.4650087480064632e-25, -1.4650087480064632e-25, -1.4650087480064632e-25
110288.97372154801, 4.4689812660217285, 1.4650087480064632e-25, 1.4650087480064632e-25, -0.098068468272686, 1.4650087480064632e-25, 1.4650087480064632e-25, 1.4650087480064632e-25, 1.4650087480064632e-25
110288.97772154801, 4.784664630889893, -2.6652681341307356e-25, -2.6652681341307356e-25, -3.1444637775421143, -2.6652681341307356e-25, -2.6652681341307356e-25, -2.6652681341307356e-25, -2.6652681341307356e-25
110288.98972154802, 6.275113582611084, 2.6652681341307356e-25, 2.6652681341307356e-25, -1.0806752443313599, 2.6652681341307356e-25, 2.6652681341307356e-25, 2.6652681341307356e-25, 2.6652681341307356e-25
110288.99372154802, 3.5677719116210938, 4.1302767588776824e-25, 4.1302767588776824e-25, -4.572332382202148, 4.1302767588776824e-25, 4.1302767588776824e-25, 4.1302767588776824e-25, 4.1302767588776824e-25
110289.05505910901, 9.401802062988281, -4.1302767588776824e-25, -4.1302767588776824e-25, -2.1150588989257812, -4.1302767588776824e-25, -4.1302767588776824e-25, -4.1302767588776824e-25, -4.1302767588776824e-25
110289.05905910901, 0.6315066814422607, -1.4650087480064632e-25, -1.4650087480064632e-25, 0.0998014509677887, -1.4650087480064632e-25, -1.4650087480064632e-25, -1.4650087480064632e-25, -1.4650087480064632e-25
110289.06705910902, 3.2449538707733154, 4.1302767588776824e-25, 4.1302767588776824e-25, 0.9053806066513062, 4.1302767588776824e-25, 4.1302767588776824e-25, 4.1302767588776824e-25, 4.1302767588776824e-25
110289.07105910902, 6.522822380065918, 1.4650087480064632e-25, 1.4650087480064632e-25, -3.0775270462036133, 1.4650087480064632e-25, 1.4650087480064632e-25, 1.4650087480064632e-25, 1.4650087480064632e-25
110289.08305910902, 7.262601375579834, -1.4650087480064632e-25, -1.4650087480064632e-25, -0.47083455324172974, -1.4650087480064632e-25, -1.4650087480064632e-25, -1.4650087480064632e-25, -1.4650087480064632e-25
110289.08705910902, 10.362900733947754, 2.6652681341307356e-25, 2.6652681341307356e-25, -3.085557460784912, 2.6652681341307356e-25, 2.6652681341307356e-25, 2.6652681341307356e-25, 2.6652681341307356e-25
110289.15161410901, 4.913189888000488, -4.1302767588776824e-25, -4.1302767588776824e-25, -2.4707086086273193, -4.1302767588776824e-25, -4.1302767588776824e-25, -4.1302767588776824e-25, -4.1302767588776824e-25
110289.16761410901, 5.198904991149902, 1.4650087480064632e-25, 1.4650087480064632e-25, -2.4624292850494385, 1.4650087480064632e-25, 1.4650087480064632e-25, 1.4650087480064632e-25, 1.4650087480064632e-25
110289.18361410902, 4.379166126251221, 2.6652681341307356e-25, 2.6652681341307356e-25, -0.850753664970398, 2.6652681341307356e-25, 2.6652681341307356e-25, 2.6652681341307356e-25, 2.6652681341307356e-25
110289.18761410902, 0.09540607035160065, 4.1302767588776824e-25, 4.1302767588776824e-25, -0.9675751328468323, 4.1302767588776824e-25, 4.1302767588776824e-25, 4.1302767588776824e-25, 4.1302767588776824e-25
110289.26232203002, 8.220891952514648, 2.6652681341307356e-25, 2.6652681341307356e-25, 0.9211508631706238, 2.6652681341307356e-25, 2.6652681341307356e-25, 2.6652681341307356e-25, 2.6652681341307356e-25
110289.26632203002, 14.25684928894043, 4.1302767588776824e-25, 4.1302767588776824e-25, -2.8263344764709473, 4.1302767588776824e-25, 4.1302767588776824e-25, 4.1302767588776824e-25, 4.1302767588776824e-25
110289.27032203002, 2.1612489223480225, 1.4650087480064632e-25, 1.4650087480064632e-25, -1.0858125686645508, 1.4650087480064632e-25, 1.4650087480064632e-25, 1.4650087480064632e-25, 1.4650087480064632e-25
110289.27832203002, 1.0295974016189575, -4.1302767588776824e-25, -4.1302767588776824e-25, 2.5958454608917236, -4.1302767588776824e-25, -4.1302767588776824e-25, -4.1302767588776824e-25, -4.1302767588776824e-25
110289.28232203002, 8.319074630737305, -1.4650087480064632e-25, -1.4650087480064632e-25, -2.3874213695526123, -1.4650087480064632e-25, -1.4650087480064632e-25, -1.4650087480064632e-25, -1.4650087480064632e-25
110289.28632203002, 1.5015008449554443, 2.6652681341307356e-25, 2.6652681341307356e-25, -2.876110792160034, 2.6652681341307356e-25, 2.6652681341307356e-25, 2.6652681341307356e-25, 2.6652681341307356e-25
110289.345771737, 7.078003883361816, 2.6652681341307356e-25, 2.6652681341307356e-25, 0.43790045380592346, 2.6652681341307356e-25, 2.6652681341307356e-25, 2.6652681341307356e-25, 2.6652681341307356e-25
110289.349771737, 10.495285034179688, 4.1302767588776824e-25, 4.1302767588776824e-25, -3.6757144927978516, 4.1302767588776824e-25, 4.1302767588776824e-25, 4.1302767588776824e-25, 4.1302767588776824e-25
110289.361771737, 0.9774678945541382, -4.1302767588776824e-25, -4.1302767588776824e-25, 2.056586980819702, -4.1302767588776824e-25, -4.1302767588776824e-25, -4.1302767588776824e-25, -4.1302767588776824e-25
110289.36577173701, 8.81378173828125, -1.4650087480064632e-25, -1.4650087480064632e-25, -1.8229820728302002, -1.4650087480064632e-25, -1.4650087480064632e-25, -1.4650087480064632e-25, -1.4650087480064632e-25
110289.36977173701, 4.428811073303223, 2.6652681341307356e-25, 2.6652681341307356e-25, -1.9766467809677124, 2.6652681341307356e-25, 2.6652681341307356e-25, 2.6652681341307356e-25, 2.6652681341307356e-25
110289.43808187601, 9.765321731567383, 4.1302767588776824e-25, 4.1302767588776824e-25, 2.2210752964019775, 4.1302767588776824e-25, 4.1302767588776824e-25, 4.1302767588776824e-25, 4.1302767588776824e-25
110289.44208187601, 8.132227897644043, 1.4650087480064632e-25, 1.4650087480064632e-25, -1.1858800649642944, 1.4650087480064632e-25, 1.4650087480064632e-25, 1.4650087480064632e-25, 1.4650087480064632e-25
110289.45408187601, 1.6200748682022095, -1.4650087480064632e-25, -1.4650087480064632e-25, 0.8021672368049622, -1.4650087480064632e-25, -1.4650087480064632e-25, -1.4650087480064632e-25, -1.4650087480064632e-25
110289.45808187602, 8.549663543701172, 2.6652681341307356e-25, 2.6652681341307356e-25, -3.00160813331604, 2.6652681341307356e-25, 2.6652681341307356e-25, 2.6652681341307356e-25, 2.6652681341307356e-25
110289.46208187602, 5.089115142822266, 4.1302767588776824e-25, 4.1302767588776824e-25, -1.9229645729064941, 4.1302767588776824e-25, 4.1302767588776824e-25, 4.1302767588776824e-25, 4.1302767588776824e-25
110289.48672620201, 3.1447336673736572, -1.4650087480064632e-25, -1.4650087480064632e-25, -2.2692079544067383, -1.4650087480064632e-25, -1.4650087480064632e-25, -1.4650087480064632e-25, -1.4650087480064632e-25
110289.50272620202, 5.680373668670654, -2.6652681341307356e-25, -2.6652681341307356e-25, -2.122810125350952, -2.6652681341307356e-25, -2.6652681341307356e-25, -2.6652681341307356e-25, -2.6652681341307356e-25
110289.50672620202, 0.043998897075653076, -4.1302767588776824e-25, -4.1302767588776824e-25, -4.196547985076904, -4.1302767588776824e-25, -4.1302767588776824e-25, -4.1302767588776824e-25, -4.1302767588776824e-25
110289.51872620202, 7.459558486938477, 4.1302767588776824e-25, 4.1302767588776824e-25, -0.8635280132293701, 4.1302767588776824e-25, 4.1302767588776824e-25, 4.1302767588776824e-25, 4.1302767588776824e-25
110289.590337821, 10.774687767028809, 4.1302767588776824e-25, 4.1302767588776824e-25, -0.38004398345947266, 4.1302767588776824e-25, 4.1302767588776824e-25, 4.1302767588776824e-25, 4.1302767588776824e-25
110289.594337821, 7.152683258056641, 1.4650087480064632e-25, 1.4650087480064632e-25, -1.4958699941635132, 1.4650087480064632e-25, 1.4650087480064632e-25, 1.4650087480064632e-25, 1.4650087480064632e-25
110289.60633782101, 3.993149757385254, -1.4650087480064632e-25, -1.4650087480064632e-25, -0.1588917225599289, -1.4650087480064632e-25, -1.4650087480064632e-25, -1.4650087480064632e-25, -1.4650087480064632e-25
110289.63186090301, 9.282207489013672, -4.1302767588776824e-25, -4.1302767588776824e-25, 1.34084951877594, -4.1302767588776824e-25, -4.1302767588776824e-25, -4.1302767588776824e-25, -4.1302767588776824e-25
110289.63586090301, 6.603771686553955, -1.4650087480064632e-25, -1.4650087480064632e-25, -2.9080097675323486, -1.4650087480064632e-25, -1.4650087480064632e-25, -1.4650087480064632e-25, -1.4650087480064632e-25
110289.64786090302, 5.760042190551758, 1.4650087480064632e-25, 1.4650087480064632e-25, 1.038624882698059, 1.4650087480064632e-25, 1.4650087480064632e-25, 1.4650087480064632e-25, 1.4650087480064632e-25
110289.65186090302, 6.213458061218262, -2.6652681341307356e-25, -2.6652681341307356e-25, -1.729932188987732, -2.6652681341307356e-25, -2.6652681341307356e-25, -2.6652681341307356e-25, -2.6652681341307356e-25
110289.66386090302, 11.158371925354004, 2.6652681341307356e-25, 2.6652681341307356e-25, 0.7102527618408203, 2.6652681341307356e-25, 2.6652681341307356e-25, 2.6652681341307356e-25, 2.6652681341307356e-25
110289.66786090302, 14.259562492370605, 4.1302767588776824e-25, 4.1302767588776824e-25, -3.049376964569092, 4.1302767588776824e-25, 4.1302767588776824e-25, 4.1302767588776824e-25, 4.1302767588776824e-25
110289.71884071201, 10.43557357788086, -4.1302767588776824e-25, -4.1302767588776824e-25, 0.32632020115852356, -4.1302767588776824e-25, -4.1302767588776824e-25, -4.1302767588776824e-25, -4.1302767588776824e-25
110289.72284071201, 15.191544532775879, -1.4650087480064632e-25, -1.4650087480064632e-25, -2.9472053050994873, -1.4650087480064632e-25, -1.4650087480064632e-25, -1.4650087480064632e-25, -1.4650087480064632e-25
110289.72684071201, 6.243642807006836, 2.6652681341307356e-25, 2.6652681341307356e-25, -0.7349042892456055, 2.6652681341307356e-25, 2.6652681341307356e-25, 2.6652681341307356e-25, 2.6652681341307356e-25
110289.73084071201, 1.3922467231750488, 4.1302767588776824e-25, 4.1302767588776824e-25, 2.657055616378784, 4.1302767588776824e-25, 4.1302767588776824e-25, 4.1302767588776824e-25, 4.1302767588776824e-25
110289.787079125, 5.818859100341797, 2.6652681341307356e-25, 2.6652681341307356e-25, 1.3282662630081177, 2.6652681341307356e-25, 2.6652681341307356e-25, 2.6652681341307356e-25, 2.6652681341307356e-25
110289.791079125, 2.965759038925171, 4.1302767588776824e-25, 4.1302767588776824e-25, -0.895476758480072, 4.1302767588776824e-25, 4.1302767588776824e-25, 4.1302767588776824e-25, 4.1302767588776824e-25
110289.799079125, 0.5135819315910339, -2.6652681341307356e-25, -2.6652681341307356e-25, 2.3383371829986572, -2.6652681341307356e-25, -2.6652681341307356e-25, -2.6652681341307356e-25, -2.6652681341307356e-25
110289.803079125, 5.319729804992676, -4.1302767588776824e-25, -4.1302767588776824e-25, -0.713573694229126, -4.1302767588776824e-25, -4.1302767588776824e-25, -4.1302767588776824e-25, -4.1302767588776824e-25
110289.807079125, 0.9192599058151245, -1.4650087480064632e-25, -1.4650087480064632e-25, -3.4505293369293213, -1.4650087480064632e-25, -1.4650087480064632e-25, -1.4650087480064632e-25, -1.4650087480064632e-25
110289.86605845601, 10.087328910827637, -4.1302767588776824e-25, -4.1302767588776824e-25, -0.13720357418060303, -4.1302767588776824e-25, -4.1302767588776824e-25, -4.1302767588776824e-25, -4.1302767588776824e-25
110289.87805845602, 4.250355243682861, 4.1302767588776824e-25, 4.1302767588776824e-25, 2.334800958633423, 4.1302767588776824e-25, 4.1302767588776824e-25, 4.1302767588776824e-25, 4.1302767588776824e-25
110289.88205845602, 16.346426010131836, 1.4650087480064632e-25, 1.4650087480064632e-25, -1.0247409343719482, 1.4650087480064632e-25, 1.4650087480064632e-25, 1.4650087480064632e-25, 1.4650087480064632e-25
110289.88605845602, 10.72084903717041, -2.6652681341307356e-25, -2.6652681341307356e-25, -2.3892662525177, -2.6652681341307356e-25, -2.6652681341307356e-25, -2.6652681341307356e-25, -2.6652681341307356e-25
110289.89405845602, 0.3600970506668091, -1.4650087480064632e-25, -1.4650087480064632e-25, 1.3806496858596802, -1.4650087480064632e-25, -1.4650087480064632e-25, -1.4650087480064632e-25, -1.4650087480064632e-25
110289.89805845602, 6.564191818237305, 2.6652681341307356e-25, 2.6652681341307356e-25, -1.4790042638778687, 2.6652681341307356e-25, 2.6652681341307356e-25, 2.6652681341307356e-25, 2.6652681341307356e-25
110289.90205845602, 1.3649111986160278, 4.1302767588776824e-25, 4.1302767588776824e-25, -2.756031036376953, 4.1302767588776824e-25, 4.1302767588776824e-25, 4.1302767588776824e-25, 4.1302767588776824e-25
110289.954041816, 2.0930569171905518, -4.1302767588776824e-25, -4.1302767588776824e-25, 3.6025407314300537, -4.1302767588776824e-25, -4.1302767588776824e-25, -4.1302767588776824e-25, -4.1302767588776824e-25
110289.958041816, 11.682233810424805, -1.4650087480064632e-25, -1.4650087480064632e-25, -0.47793152928352356, -1.4650087480064632e-25, -1.4650087480064632e-25, -1.4650087480064632e-25, -1.4650087480064632e-25
110289.962041816, 0.012503745965659618, 2.6652681341307356e-25, 2.6652681341307356e-25, -1.3203974962234497, 2.6652681341307356e-25, 2.6652681341307356e-25, 2.6652681341307356e-25, 2.6652681341307356e-25
110289.970041816, 2.26639461517334, 1.4650087480064632e-25, 1.4650087480064632e-25, 3.3207008838653564, 1.4650087480064632e-25, 1.4650087480064632e-25, 1.4650087480064632e-25, 1.4650087480064632e-25
110289.974041816, 12.772459030151367, -2.6652681341307356e-25, -2.6652681341307356e-25, -0.18729226291179657, -2.6652681341307356e-25, -2.6652681341307356e-25, -2.6652681341307356e-25, -2.6652681341307356e-25
110289.97804181601, 3.3547143936157227, -4.1302767588776824e-25, -4.1302767588776824e-25, -1.9681240320205688, -4.1302767588776824e-25, -4.1302767588776824e-25, -4.1302767588776824e-25, -4.1302767588776824e-25
110289.98604181601, 1.1564581394195557, 2.6652681341307356e-25, 2.6652681341307356e-25, 2.5712599754333496, 2.6652681341307356e-25, 2.6652681341307356e-25, 2.6652681341307356e-25, 2.6652681341307356e-25
110289.99004181601, 12.849428176879883, 4.1302767588776824e-25, 4.1302767588776824e-25, -0.5590622425079346, 4.1302767588776824e-25, 4.1302767588776824e-25, 4.1302767588776824e-25, 4.1302767588776824e-25
110290.04356444601, 17.96989631652832, -4.1302767588776824e-25, -4.1302767588776824e-25, -1.789461612701416, -4.1302767588776824e-25, -4.1302767588776824e-25, -4.1302767588776824e-25, -4.1302767588776824e-25
110290.04756444601, 11.54940128326416, -1.4650087480064632e-25, -1.4650087480064632e-25, -1.2159686088562012, -1.4650087480064632e-25, -1.4650087480064632e-25, -1.4650087480064632e-25, -1.4650087480064632e-25
110290.05156444601, 1.1933188438415527, 2.6652681341307356e-25, 2.6652681341307356e-25, 2.28546404838562, 2.6652681341307356e-25, 2.6652681341307356e-25, 2.6652681341307356e-25, 2.6652681341307356e-25
110290.05556444601, 4.731995105743408, 4.1302767588776824e-25, 4.1302767588776824e-25, 1.5560795068740845, 4.1302767588776824e-25, 4.1302767588776824e-25, 4.1302767588776824e-25, 4.1302767588776824e-25
110290.05956444601, 10.235441207885742, 1.4650087480064632e-25, 1.4650087480064632e-25, -3.138164520263672, 1.4650087480064632e-25, 1.4650087480064632e-25, 1.4650087480064632e-25, 1.4650087480064632e-25
110290.06356444601, 0.8863297700881958, -2.6652681341307356e-25, -2.6652681341307356e-25, -4.069750785827637, -2.6652681341307356e-25, -2.6652681341307356e-25, -2.6652681341307356e-25, -2.6652681341307356e-25
110290.07556444602, 5.478742599487305, 2.6652681341307356e-25, 2.6652681341307356e-25, -1.7372404336929321, 2.6652681341307356e-25, 2.6652681341307356e-25, 2.6652681341307356e-25, 2.6652681341307356e-25
110290.07956444602, 3.3806097507476807, 4.1302767588776824e-25, 4.1302767588776824e-25, -3.342128276824951, 4.1302767588776824e-25, 4.1302767588776824e-25, 4.1302767588776824e-25, 4.1302767588776824e-25
110290.13407857601, 2.0180699825286865, -1.4650087480064632e-25, -1.4650087480064632e-25, 2.407783269882202, -1.4650087480064632e-25, -1.4650087480064632e-25, -1.4650087480064632e-25, -1.4650087480064632e-25
110290.13807857601, 6.339059829711914, 2.6652681341307356e-25, 2.6652681341307356e-25, -2.173677444458008, 2.6652681341307356e-25, 2.6652681341307356e-25, 2.6652681341307356e-25, 2.6652681341307356e-25
110290.15407857602, 9.924186706542969, -4.1302767588776824e-25, -4.1302767588776824e-25, -1.8761234283447266, -4.1302767588776824e-25, -4.1302767588776824e-25, -4.1302767588776824e-25, -4.1302767588776824e-25
110290.15807857602, 2.7219624519348145, -1.4650087480064632e-25, -1.4650087480064632e-25, -2.3062844276428223, -1.4650087480064632e-25, -1.4650087480064632e-25, -1.4650087480064632e-25, -1.4650087480064632e-25
110290.16607857602, 4.5623579025268555, 4.1302767588776824e-25, 4.1302767588776824e-25, 3.2949442863464355, 4.1302767588776824e-25, 4.1302767588776824e-25, 4.1302767588776824e-25, 4.1302767588776824e-25
110290.21456768601, 3.6900923252105713, -1.4650087480064632e-25, -1.4650087480064632e-25, 0.20530909299850464, -1.4650087480064632e-25, -1.4650087480064632e-25, -1.4650087480064632e-25, -1.4650087480064632e-25
110290.22256768601, 2.52742338180542, 2.6652681341307356e-25, 2.6652681341307356e-25, -3.96724271774292, 2.6652681341307356e-25, 2.6652681341307356e-25, 2.6652681341307356e-25, 2.6652681341307356e-25
110290.23856768601, 3.2528533935546875, -4.1302767588776824e-25, -4.1302767588776824e-25, -0.5783702731132507, -4.1302767588776824e-25, -4.1302767588776824e-25, -4.1302767588776824e-25, -4.1302767588776824e-25
110290.25056768602, 4.241241455078125, 4.1302767588776824e-25, 4.1302767588776824e-25, 1.91427743434906, 4.1302767588776824e-25, 4.1302767588776824e-25, 4.1302767588776824e-25, 4.1302767588776824e-25
110290.305976742, 10.150458335876465, 2.6652681341307356e-25, 2.6652681341307356e-25, 0.8109296560287476, 2.6652681341307356e-25, 2.6652681341307356e-25, 2.6652681341307356e-25, 2.6652681341307356e-25
110290.309976742, 8.870079040527344, 4.1302767588776824e-25, 4.1302767588776824e-25, -2.0480997562408447, 4.1302767588776824e-25, 4.1302767588776824e-25, 4.1302767588776824e-25, 4.1302767588776824e-25
110290.32197674201, 3.805711507797241, -4.1302767588776824e-25, -4.1302767588776824e-25, 1.814449667930603, -4.1302767588776824e-25, -4.1302767588776824e-25, -4.1302767588776824e-25, -4.1302767588776824e-25
110290.32597674201, 6.770508766174316, -1.4650087480064632e-25, -1.4650087480064632e-25, -1.6682090759277344, -1.4650087480064632e-25, -1.4650087480064632e-25, -1.4650087480064632e-25, -1.4650087480064632e-25
110290.39869489301, 6.357497692108154, -1.4650087480064632e-25, -1.4650087480064632e-25, 0.15223246812820435, -1.4650087480064632e-25, -1.4650087480064632e-25, -1.4650087480064632e-25, -1.4650087480064632e-25
110290.40269489301, 5.116466045379639, 2.6652681341307356e-25, 2.6652681341307356e-25, -2.3818273544311523, 2.6652681341307356e-25, 2.6652681341307356e-25, 2.6652681341307356e-25, 2.6652681341307356e-25
110290.41469489301, 1.38167405128479, -2.6652681341307356e-25, -2.6652681341307356e-25, -0.03246866166591644, -2.6652681341307356e-25, -2.6652681341307356e-25, -2.6652681341307356e-25, -2.6652681341307356e-25
110290.41869489301, 1.493904948234558, -4.1302767588776824e-25, -4.1302767588776824e-25, -2.4956796169281006, -4.1302767588776824e-25, -4.1302767588776824e-25, -4.1302767588776824e-25, -4.1302767588776824e-25
110290.43069489302, 5.300022125244141, 4.1302767588776824e-25, 4.1302767588776824e-25, 1.8793443441390991, 4.1302767588776824e-25, 4.1302767588776824e-25, 4.1302767588776824e-25, 4.1302767588776824e-25
110290.457261097, 2.4159011840820312, 2.6652681341307356e-25, 2.6652681341307356e-25, 1.9694461822509766, 2.6652681341307356e-25, 2.6652681341307356e-25, 2.6652681341307356e-25, 2.6652681341307356e-25
110290.461261097, 13.546414375305176, 4.1302767588776824e-25, 4.1302767588776824e-25, -1.0343127250671387, 4.1302767588776824e-25, 4.1302767588776824e-25, 4.1302767588776824e-25, 4.1302767588776824e-25
110290.46526109701, 9.340778350830078, 1.4650087480064632e-25, 1.4650087480064632e-25, -2.1628975868225098, 1.4650087480064632e-25, 1.4650087480064632e-25, 1.4650087480064632e-25, 1.4650087480064632e-25
110290.47726109701, 3.2398314476013184, -1.4650087480064632e-25, -1.4650087480064632e-25, 0.2827566862106323, -1.4650087480064632e-25, -1.4650087480064632e-25, -1.4650087480064632e-25, -1.4650087480064632e-25
110290.48126109701, 2.585163116455078, 2.6652681341307356e-25, 2.6652681341307356e-25, -2.0668604373931885, 2.6652681341307356e-25, 2.6652681341307356e-25, 2.6652681341307356e-25, 2.6652681341307356e-25
110290.53895806, 2.6952502727508545, -4.1302767588776824e-25, -4.1302767588776824e-25, -3.5196220874786377, -4.1302767588776824e-25, -4.1302767588776824e-25, -4.1302767588776824e-25, -4.1302767588776824e-25
110290.55495806, 3.4490935802459717, 1.4650087480064632e-25, 1.4650087480064632e-25, -0.19962045550346375, 1.4650087480064632e-25, 1.4650087480064632e-25, 1.4650087480064632e-25, 1.4650087480064632e-25
110290.55895806, 1.7737540006637573, -2.6652681341307356e-25, -2.6652681341307356e-25, -1.1826902627944946, -2.6652681341307356e-25, -2.6652681341307356e-25, -2.6652681341307356e-25, -2.6652681341307356e-25
110290.56695806001, 0.6309008598327637, -1.4650087480064632e-25, -1.4650087480064632e-25, 3.5607471466064453, -1.4650087480064632e-25, -1.4650087480064632e-25, -1.4650087480064632e-25, -1.4650087480064632e-25
110290.57095806001, 10.082653999328613, 2.6652681341307356e-25, 2.6652681341307356e-25, -0.024199150502681732, 2.6652681341307356e-25, 2.6652681341307356e-25, 2.6652681341307356e-25, 2.6652681341307356e-25
110290.57495806001, 6.590786457061768, 4.1302767588776824e-25, 4.1302767588776824e-25, -2.570222854614258, 4.1302767588776824e-25, 4.1302767588776824e-25, 4.1302767588776824e-25, 4.1302767588776824e-25
110290.63141062601, 6.499035358428955, -1.4650087480064632e-25, -1.4650087480064632e-25, -0.19252799451351166, -1.4650087480064632e-25, -1.4650087480064632e-25, -1.4650087480064632e-25, -1.4650087480064632e-25
110290.63541062601, 13.27202320098877, 2.6652681341307356e-25, 2.6652681341307356e-25, -3.334223508834839, 2.6652681341307356e-25, 2.6652681341307356e-25, 2.6652681341307356e-25, 2.6652681341307356e-25
110290.63941062601, 6.2768659591674805, 4.1302767588776824e-25, 4.1302767588776824e-25, -4.181686878204346, 4.1302767588776824e-25, 4.1302767588776824e-25, 4.1302767588776824e-25, 4.1302767588776824e-25
110290.72310016901, 2.9987270832061768, -1.4650087480064632e-25, -1.4650087480064632e-25, -0.3231641352176666, -1.4650087480064632e-25, -1.4650087480064632e-25, -1.4650087480064632e-25, -1.4650087480064632e-25
110290.72710016901, 3.4810972213745117, 2.6652681341307356e-25, 2.6652681341307356e-25, -3.061899185180664, 2.6652681341307356e-25, 2.6652681341307356e-25, 2.6652681341307356e-25, 2.6652681341307356e-25
110290.73110016901, 4.629136562347412, 4.1302767588776824e-25, 4.1302767588776824e-25, -3.587212085723877, 4.1302767588776824e-25, 4.1302767588776824e-25, 4.1302767588776824e-25, 4.1302767588776824e-25
110290.73510016901, 5.373763561248779, 1.4650087480064632e-25, 1.4650087480064632e-25, -1.8393632173538208, 1.4650087480064632e-25, 1.4650087480064632e-25, 1.4650087480064632e-25, 1.4650087480064632e-25
110290.75510016902, 3.974175214767456, 4.1302767588776824e-25, 4.1302767588776824e-25, 6.032769680023193, 4.1302767588776824e-25, 4.1302767588776824e-25, 4.1302767588776824e-25, 4.1302767588776824e-25
110290.80572883101, 154.43299865722656, -4.1302767588776824e-25, -4.1302767588776824e-25, 311.0920715332031, -4.1302767588776824e-25, -4.1302767588776824e-25, -4.1302767588776824e-25, -4.1302767588776824e-25
110290.80972883101, 112.0538558959961, -1.4650087480064632e-25, -1.4650087480064632e-25, 440.1877136230469, -1.4650087480064632e-25, -1.4650087480064632e-25, -1.4650087480064632e-25, -1.4650087480064632e-25
110290.81372883101, 50.577877044677734, 2.6652681341307356e-25, 2.6652681341307356e-25, 408.9089050292969, 2.6652681341307356e-25, 2.6652681341307356e-25, 2.6652681341307356e-25, 2.6652681341307356e-25
110290.88772182801, 14.041529655456543, 4.1302767588776824e-25, 4.1302767588776824e-25, 6.069255828857422, 4.1302767588776824e-25, 4.1302767588776824e-25, 4.1302767588776824e-25, 4.1302767588776824e-25
110290.89172182801, 64.05476379394531, 1.4650087480064632e-25, 1.4650087480064632e-25, 80.03095245361328, 1.4650087480064632e-25, 1.4650087480064632e-25, 1.4650087480064632e-25, 1.4650087480064632e-25
110290.89572182801, 113.93997955322266, -2.6652681341307356e-25, -2.6652681341307356e-25, 151.9556121826172, -2.6652681341307356e-25, -2.6652681341307356e-25, -2.6652681341307356e-25, -2.6652681341307356e-25
